Time (s),ECG_Original (mV),ECG_Filtered (mV),ECG_Denoised (mV)
1.571,192.6007326007326,0.07625806399882373,3.7187558209879565
1.571,195.018315018315,32.484119771933194,23.719948197669538
1.572,192.6007326007326,36.89229470985362,43.40861609264903
1.572,193.40659340659337,88.35337042233692,59.63443436407343
1.572,193.40659340659337,70.71660505186381,57.560006610901226
1.583,0.0,-65.83644485260396,-40.475570742125015
1.583,0.0,-90.68130748142079,-66.82310742197073
1.583,0.0,-57.40257261377173,-57.71354851308175
1.584,0.0,-74.00841709546032,-57.68563510534422
1.584,0.0,-70.84465722655122,-67.1330668073112
1.584,0.0,-85.62348758208171,-68.24071735407577
1.584,30.62271062271062,-67.87455965961635,-43.90652000543094
1.585,150.6959706959707,38.115314478629564,24.676574143603716
1.585,229.67032967032966,96.83252865393753,63.60927672922751
1.585,215.16483516483518,77.28705418128199,71.65417036532335
1.585,212.74725274725276,58.801081334248025,66.02724820972801
1.586,204.68864468864467,51.37409915187791,49.482460491754864
1.586,196.63003663003664,50.5977663264253,44.670429636281696
1.586,191.7948717948718,38.14402849230888,41.44469436752617
1.586,180.5128205128205,69.04079075353309,41.96069701371661
1.587,186.95970695970695,53.974713751009936,36.43502730801083
1.597,0.0,-71.83011410361527,-49.23789229488735
1.598,0.0,-89.09155007230689,-67.92011767536225
1.598,0.0,-42.96001277738206,-51.369921363520575
1.598,0.0,-40.70645819063075,-41.062807540218614
1.598,0.0,-20.219667593224866,-18.846143588941974
1.599,0.0,-8.148374347730737,-4.258185628113457
1.599,0.0,-1.76420257731953,1.6831999368274562
1.599,0.0,7.280503911382702,2.496936475143073
1.599,0.0,8.664990250342829,1.8266470123934941
1.6,0.0,10.959467512249722,1.7573463574972987
1.6,0.0,10.199704383019984,5.971711264439371
1.6,0.0,6.048113479979749,10.585000504805935
1.6,0.0,3.618052224586531,13.476246978064118
1.601,0.0,-5.792134859137472,10.332017074261822
1.601,0.0,-11.98639187416327,-5.6069502626743315
1.601,0.0,-20.92292026625258,-25.224513646477583
1.602,0.0,-39.22903303925175,-36.30628277763707
1.602,0.0,-33.46303841573858,-38.5521423276376
1.602,0.0,-72.7751206697353,-47.41271635831177
1.602,0.0,-45.82647952833911,-39.51591324269793
1.613,193.40659340659337,104.76867625383238,78.42171212012862
1.613,195.8241758241758,129.68311574253593,111.66787003603469
1.613,190.989010989011,118.24621565004321,100.3263134295768
1.614,164.3956043956044,85.27185860957384,51.00016909809555
1.614,0.0,-46.65841160282034,-27.82950946868379
1.614,0.0,-63.59578822968714,-40.06902813595219
1.614,0.0,-28.53927997560893,-32.90161338951124
1.615,0.0,-31.80932833468985,-26.719477543663828
1.615,0.0,-14.367265263625894,-8.393263410126604
1.615,0.0,-7.096318692874332,3.5598779769138247
1.616,0.0,-3.7984374867567734,5.273850691151643
1.616,0.0,2.4261975625000183,1.506787475860187
1.616,0.0,-3.139644640609843,-1.1126596377669327
1.616,0.0,-5.075789124289438,-6.928615342753263
1.617,0.0,-14.52802331928486,-17.522705459290545
1.617,0.0,-33.231202514090995,-32.3779370661991
1.617,0.0,-34.99305069597005,-41.699888885129894
1.617,0.0,-80.1045338587806,-54.76165985853084
1.618,0.0,-66.6962330012552,-39.04660910565593
1.628,187.76556776556774,60.82812929722604,46.23669323527609
1.628,193.40659340659337,79.28432207322115,45.3430682396764
1.629,193.40659340659337,34.47342063349065,32.69445756131792
1.629,193.40659340659337,31.453531066731067,28.37116221424377
1.629,192.6007326007326,12.358881949537171,19.730067976058084
1.63,193.40659340659337,2.233756165249769,5.160268269015159
1.63,193.40659340659337,1.7010215987754833,-6.008935792594055
1.63,195.018315018315,-4.040075720325483,-6.0160476203405855
1.63,190.1831501831502,0.9489104302028295,-0.501750797732237
1.631,193.40659340659337,5.9808431614231985,4.098130073713504
1.631,193.40659340659337,19.321108202929658,11.759336809646356
1.631,195.018315018315,39.21589328863831,21.794018308558094
1.631,193.40659340659337,40.79352332550121,30.928002978162883
1.632,193.40659340659337,83.8260566043577,53.98601352901217
1.632,190.1831501831502,63.80184983935196,62.520042624494444
1.642,0.0,-71.21733867669535,-40.59756235617583
1.643,0.0,-94.49266663786122,-76.08915238421031
1.643,0.0,-58.6561021604614,-65.09512716481674
1.643,0.0,-74.30378840546433,-61.40362863506519
1.643,0.0,-68.3011422118112,-65.2086113800086
1.644,0.0,-80.65523338624931,-61.55307149745791
1.644,0.0,-96.2746364508755,-57.412304126496466
1.644,100.73260073260072,-4.180376433824605,5.89154598872257
1.645,230.47619047619048,98.01383043807445,75.31111206344815
1.645,219.19413919413918,83.6011772591481,70.16403178754709
1.645,216.77655677655676,60.51767662305179,61.645448048446575
1.645,208.71794871794867,50.76963738773746,34.84053386691306
1.646,194.2124542124542,32.98848192442131,26.363593163058454
1.646,191.7948717948718,39.246580867717,30.157252045343412
1.646,186.15384615384613,33.60996300145109,36.781853453329155
1.646,187.76556776556774,70.63060502297975,46.22814978657768
1.647,179.7069597069597,51.05826309928679,25.103853321641157
1.657,0.0,-73.96169642372023,-58.03486853579592
1.657,0.0,-85.47042315169212,-56.50063165677743
1.658,0.0,-41.719706489754856,-41.68524505266998
1.658,0.0,-38.28902944470161,-34.22065407923328
1.658,0.0,-17.551095306743598,-21.868966492070037
1.659,0.0,-6.25358891009591,-3.0064456945058806
1.659,0.0,0.7896464504629428,12.7704611033474
1.659,0.0,8.715789640121793,18.172474246976495
1.659,0.0,9.852507223661352,16.95342365960027
1.66,0.0,11.6136063103893,12.623484525199762
1.66,0.0,8.012341615244027,5.246737513144816
1.66,0.0,5.278235884077222,-4.210232674852468
1.66,0.0,-3.945396599749518,-13.56846459711087
1.661,0.0,-11.127478147588528,-19.993356021174915
1.661,0.0,-22.482230041588238,-25.949331444227912
1.661,0.0,-40.486848557433014,-30.994921181904783
1.662,0.0,-41.23425258288067,-33.184068375640884
1.662,0.0,-79.16696329857999,-46.86202237441513
1.662,0.0,-58.555472600588836,-48.29245275919869
1.673,193.40659340659337,85.24688549782806,59.17629860663181
1.673,196.63003663003664,122.88601021743918,101.58349735550448
1.673,193.40659340659337,77.65769894309973,73.89013717341798
1.673,193.40659340659337,120.87559301578558,103.96458613407243
1.674,192.6007326007326,87.71139310053914,65.12186391960103
1.674,3.2234432234432235,-51.920143348329844,-41.73384788590288
1.674,0.0,-73.64690554823468,-47.25078706471912
1.674,0.0,-36.40039185721239,-37.92662874244282
1.675,0.0,-35.21899874901662,-36.039779153091494
1.675,0.0,-18.46211756366163,-27.574562941065764
1.675,0.0,-10.373893769650767,-10.132317250882794
1.675,0.0,-5.438888346197112,3.2413105370816737
1.676,0.0,-4.472120659853971,-0.821645200521276
1.676,0.0,-7.248931618614504,-11.142928116614458
1.676,0.0,-13.85576434958906,-10.60734981249414
1.677,0.0,-31.683275899195323,-15.842606195134023
1.677,0.0,-32.99722841881822,-37.538485891290975
1.677,0.0,-77.02416631938718,-63.249706588640414
1.677,0.0,-63.41792522894535,-40.1222503555097
1.688,184.54212454212455,60.7665476869779,51.335195373122545
1.688,189.37728937728937,79.62658592586854,45.82631263527914
1.688,193.40659340659337,37.38536821520379,26.422890472904268
1.689,186.15384615384613,28.542488703761517,18.49775781553043
1.689,184.54212454212455,7.428946502616709,10.056101736545813
1.689,188.57142857142856,0.675895059728866,5.422054146242008
1.689,189.37728937728937,0.7625839251066218,3.9708314811138252
1.69,193.40659340659337,-3.247033714551737,-1.444725049502417
1.69,190.989010989011,4.007080296290873,-2.13859652126334
1.69,193.40659340659337,8.302135593905358,11.306605870462326
1.691,190.1831501831502,17.130825051958475,29.00847200081555
1.691,189.37728937728937,36.62556694651257,40.173992696614675
1.691,193.40659340659337,41.179809617522864,44.52751740063345
1.691,188.57142857142856,83.17814622304437,51.356248232000816
1.692,188.57142857142856,63.55786339812975,47.13485495915805
1.702,0.0,-65.65305917543824,-43.24364731729408
1.702,0.0,-89.79416210168941,-68.36679668204279
1.703,0.0,-52.5062951613391,-57.962109482296505
1.703,0.0,-62.18898106488027,-58.20683072112782
1.703,0.0,-65.23493959689601,-57.93706236850487
1.703,0.0,-58.093486435432595,-61.27064925730256
1.704,0.0,-96.6923915830615,-68.59975020511273
1.704,0.0,-80.20393566690444,-62.22215866339451
1.704,198.24175824175825,70.26684882670563,46.393349124393524
1.705,234.50549450549448,112.91461311205812,88.52783914824023
1.705,206.3003663003663,61.07159683364047,66.24494630546744
1.705,209.5238095238095,55.93904622023172,54.39766155520943
1.705,195.8241758241758,43.38449020710244,33.35813626947269
1.706,193.40659340659337,42.29617288021825,27.850202141339224
1.706,192.6007326007326,43.0432817400172,46.97371819141159
1.706,193.40659340659337,76.444526205553,62.01970311629322
1.706,180.5128205128205,51.44766063639272,27.565842243081676
1.717,0.0,-74.9015867919191,-65.00231964772492
1.717,0.0,-86.93892573171838,-54.89977577294281
1.717,0.0,-43.03474876551405,-28.097733828096704
1.718,0.0,-39.63382602384454,-20.21901362953789
1.718,0.0,-18.570486360354682,-13.942208861232096
1.718,0.0,-7.003029604592587,-7.967893407836195
1.718,0.0,0.38361051359562737,-4.515801439863831
1.719,0.0,8.654685379988978,-0.3174871045608875
1.719,0.0,10.051918615897918,3.0838621830275645
1.719,0.0,12.142317207789638,4.243812141106129
1.72,0.0,8.565025558377076,3.1441231067655555
1.72,0.0,6.074602032597149,0.28585581719405734
1.72,0.0,-3.419945549997987,-5.945995240561388
1.72,0.0,-10.835075169325723,-17.749156017932993
1.721,0.0,-22.354460681766952,-30.436122748604483
1.721,0.0,-42.07088157161104,-36.49955885852366
1.721,0.0,-42.05244718700738,-36.11823572237633
1.721,0.0,-83.82163334634504,-43.52530832419352
1.722,0.0,-62.345848098883884,-39.00169891264768
1.732,192.6007326007326,78.34592041905005,67.02660853223065
1.732,199.04761904761904,112.77566234416086,102.40989977568928
1.733,194.2124542124542,78.15741625492035,76.388760413624
1.733,193.40659340659337,92.44297665357887,67.6137594459451
1.733,196.63003663003664,102.23521724501141,62.96894994252361
1.734,129.74358974358975,36.49297594176107,27.155873496774078
1.734,0.0,-63.04157294412839,-40.12601062999701
1.734,0.0,-65.26285852014337,-51.803520811870825
1.734,0.0,-35.71171418969181,-37.87675748974693
1.735,0.0,-33.182688540064404,-15.128435965089515
1.735,0.0,-17.797322192760944,-17.532132551381125
1.735,0.0,-15.521272613849794,-27.690858183830272
1.735,0.0,-14.259908670778554,-24.454830315569954
1.736,0.0,-17.044797630520513,-21.034795719226146
1.736,0.0,-32.95371414457273,-22.193557574592052
1.736,0.0,-33.6447430636627,-24.434181012738527
1.737,0.0,-72.95933464926223,-41.42009810313493
1.737,0.0,-65.50798768312232,-48.46452348275333
1.747,168.42490842490844,51.749531740922066,33.55883051265222
1.748,193.40659340659337,79.97854912296785,67.77790862430297
1.748,188.57142857142856,38.1031408170631,42.080907869662866
1.748,193.40659340659337,32.67777005046689,17.50765591403502
1.748,193.40659340659337,17.411677850034465,12.367617626772965
1.749,193.40659340659337,3.2849397883941585,15.084928912173279
1.749,188.57142857142856,-2.6266200050571555,0.4056214146130806
1.749,192.6007326007326,-6.592625999827604,-11.375783904504223
1.749,193.40659340659337,2.228864077249792,-1.7195612383388243
1.75,193.40659340659337,4.535945606298199,13.893980692003566
1.75,191.7948717948718,15.003815238982531,16.864467960465092
1.75,194.2124542124542,36.89684047991964,23.891503389400953
1.75,193.40659340659337,39.31997297029165,43.656890950707194
1.751,193.40659340659337,85.06854245492067,66.99329903343721
1.751,192.6007326007326,69.0977168610257,37.5073383759248
1.761,0.0,-63.70668385809997,-64.72744799519529
1.762,0.0,-82.73149845068946,-57.74879048842928
1.762,0.0,-41.29367182988469,-36.820568025456986
1.762,0.0,-49.64787404734782,-35.42253484516333
1.763,0.0,-38.58484170233986,-37.548061346577036
1.763,0.0,-43.48736545891832,-40.838077251520396
1.763,0.0,-55.36450595491925,-48.13919820736653
1.763,0.0,-59.643016601137994,-62.27031959715793
1.764,0.0,-91.87859148916056,-65.79582884831161
1.764,58.82783882783882,-27.25824836822266,-3.6105732014940752
1.764,240.95238095238093,111.69023372227505,86.22931856414637
1.764,224.8351648351648,109.15251904427925,83.57324578748867
1.765,216.77655677655676,69.94878861214318,60.66812306224097
1.765,206.3003663003663,77.27648411147288,62.16313627425936
1.765,197.43589743589743,50.388093535302644,61.73726495586284
1.766,193.40659340659337,83.81808925341593,61.04136950067368
1.766,193.40659340659337,62.79893453316649,52.02994966620716
1.776,0.0,-75.04471977333793,-51.54286369567083
1.777,0.0,-91.02437436537889,-72.95659535611335
1.777,0.0,-46.518651305556226,-49.976338271315555
1.777,0.0,-43.90455617552558,-33.62932277851049
1.777,0.0,-22.735057530023916,-27.851409130802825
1.778,0.0,-10.259220475078088,-29.30651126896459
1.778,0.0,-2.7080784152500446,-13.551929985319006
1.778,0.0,7.078927182440573,4.151955149347057
1.778,0.0,9.40484866979259,12.59253685506948
1.779,0.0,12.494424721552527,16.49928694991592
1.779,0.0,12.200797285800808,17.99766863681637
1.779,0.0,8.409142493015445,15.60013481083971
1.78,0.0,5.7721380858929425,8.707974989490822
1.78,0.0,-4.438340143185209,-0.08698122971075146
1.78,0.0,-11.647452290786804,-7.0218918354078514
1.78,0.0,-23.493769788299257,-15.820125421957984
1.781,0.0,-43.87564105873724,-26.69625962304794
1.781,0.0,-43.27532436437607,-36.10274593996484
1.781,0.0,-87.23229008098072,-59.657828533021146
1.781,0.0,-64.58682262602633,-65.07144489521677
1.792,193.40659340659337,74.91199491501897,40.35290168103407
1.792,199.04761904761904,106.48973804589244,82.33304241457965
1.792,197.43589743589743,79.9563242338743,87.15682158020245
1.793,197.43589743589743,82.60934922302782,84.4275167021794
1.793,197.43589743589743,106.70847160338164,78.98279685345447
1.793,185.34798534798534,73.94665192032826,55.036101837878775
1.794,1.6117216117216118,-57.68337418108096,-39.0703896708257
1.794,0.0,-78.61811525124797,-61.17243055165189
1.794,0.0,-36.61271976877947,-49.720622154757606
1.794,0.0,-38.93665031470285,-44.109102964425446
1.795,0.0,-20.985612692711914,-23.322657100767657
1.795,0.0,-17.156666758075858,-11.695502187380146
1.795,0.0,-16.405603897401097,-15.809538664908962
1.795,0.0,-17.335677509977586,-25.532312224593163
1.796,0.0,-33.42383628801633,-25.948959914211844
1.796,0.0,-33.36838751380264,-23.982509953971856
1.796,0.0,-72.62731285310187,-36.405156506240246
1.797,0.0,-64.48440232412469,-40.72894110433216
1.807,167.61904761904762,51.05202127170488,30.55899457636111
1.807,190.989010989011,79.43791155158486,56.51116604008223
1.808,191.7948717948718,40.943247519651536,44.39713573726296
1.808,192.6007326007326,34.06431457967851,27.922458329442158
1.808,190.989010989011,14.550317766340523,7.702787590376728
1.808,189.37728937728937,0.9552116886396895,-5.730046921175672
1.809,190.989010989011,-0.11090215330342801,-8.05833270357295
1.809,193.40659340659337,-5.28124398280341,-3.8715532536976616
1.809,190.989010989011,0.7339831784834203,-0.7011606566240297
1.809,193.40659340659337,3.9808279799385033,5.798904041176405
1.81,188.57142857142856,12.925412158538583,16.833660617191207
1.81,192.6007326007326,34.71045399599178,32.51305811699915
1.81,191.7948717948718,38.48634752394392,43.87701598364813
1.811,193.40659340659337,85.41256200427384,58.98747655755647
1.811,193.40659340659337,70.74110730043442,42.81423813900703
1.821,0.0,-61.82181442671164,-46.19506146928772
1.822,0.0,-80.51286324360814,-44.34597470148358
1.822,0.0,-37.37686746387597,-32.50627494058698
1.822,0.0,-44.25432094995082,-34.11840431536446
1.822,0.0,-32.66881894150103,-35.11452988209013
1.823,0.0,-33.39973210570313,-28.44260383920533
1.823,0.0,-48.16915174855577,-30.518135905277276
1.823,0.0,-46.588347462047324,-52.624348939091604
1.823,0.0,-82.61453091772063,-73.8206133294935
1.824,0.0,-77.51072537961383,-59.45352995031553
1.824,167.61904761904762,49.71682807066419,36.20063263235647
1.824,234.50549450549448,117.11477169039338,77.49864433713955
1.825,215.16483516483518,77.34162033826377,59.171795330648166
1.825,210.3296703296703,64.6873636622195,62.707605089951926
1.825,201.46520146520143,65.53390563767937,57.7092597493535
1.825,197.43589743589743,46.418401702970456,60.844089472423924
1.826,186.15384615384613,76.98412215661052,65.86985608582788
1.826,186.15384615384613,53.78147251540861,30.669266461210736
1.836,0.0,-73.32392560220205,-64.1477159721325
1.837,0.0,-89.65424783109749,-56.56667730899468
1.837,0.0,-44.61030075186292,-32.55819851504248
1.837,0.0,-41.39513125093039,-24.89479286471096
1.837,0.0,-20.51951191813943,-17.60304867883471
1.838,0.0,-8.026074829000578,-10.115864799226712
1.838,0.0,-0.6186430862604233,-4.733972723858963
1.838,0.0,8.408388201310567,1.1178712702236608
1.839,0.0,10.152716108528242,6.447041697731462
1.839,0.0,12.681805077054541,10.421176969819701
1.839,0.0,9.421897506829158,11.935080886045311
1.839,0.0,7.067521606623073,11.090296131633826
1.84,0.0,-2.423244711430158,4.62881603372128
1.84,0.0,-10.197510379546411,-11.687412796043068
1.84,0.0,-22.180897979755883,-30.884752480778875
1.84,0.0,-43.08283136183646,-43.76067843029051
1.841,0.0,-44.18655287826106,-48.94828458888594
1.841,0.0,-88.00258721889631,-57.323056994594545
1.841,0.0,-68.86079789938215,-52.716588613350275
1.852,195.018315018315,72.17580781821417,51.00583408760157
1.852,199.04761904761904,100.25686212791828,80.5893700714201
1.852,199.04761904761904,68.45163279071309,72.68285845025258
1.852,195.8241758241758,79.36178402805608,66.51790222160696
1.853,199.04761904761904,80.11671645962905,69.36127278333988
1.853,194.2124542124542,90.62168935055843,64.71677734485856
1.853,120.87912087912088,24.34037038508003,5.2727127694228555
1.854,0.0,-70.54958057377151,-53.67028245223801
1.854,0.0,-64.58756882600046,-51.8494362968842
1.854,0.0,-40.48633883298197,-31.60255010815934
1.854,0.0,-33.17348296159984,-31.094393157572128
1.855,0.0,-23.986524597091822,-32.20176720416974
1.855,0.0,-19.778063286325523,-25.025188227924875
1.855,0.0,-22.32455256194348,-20.133511642026875
1.855,0.0,-34.47022278813773,-20.60394275603915
1.856,0.0,-34.040825702943096,-22.932236609798533
1.856,0.0,-74.56187590434126,-39.027368917203546
1.856,0.0,-61.13548841875568,-46.23973516919778
1.867,176.48351648351647,56.59188126846036,37.514623747224945
1.867,182.93040293040292,76.14209704773133,64.0759191378456
1.867,193.40659340659337,40.01015912509598,43.44704929993232
1.868,188.57142857142856,32.81272244044569,15.164716962579654
1.868,189.37728937728937,12.754813910976972,10.880007676120547
1.868,193.40659340659337,5.301049381917313,13.839270134917832
1.868,191.7948717948718,1.4078635723266686,-0.47728588022176643
1.869,193.40659340659337,-5.143154322697601,-12.394174822812994
1.869,190.989010989011,0.08761150681490193,-4.217382533250124
1.869,193.40659340659337,5.641298629661502,9.446181195363891
1.869,192.6007326007326,14.720938050137104,9.73580882916968
1.87,185.34798534798534,29.850732634887077,15.54562805408252
1.87,193.40659340659337,38.26750225417783,42.446092350839194
1.87,193.40659340659337,86.7062532384252,70.67162190766105
1.871,190.1831501831502,67.56797479459607,41.11340698105407
1.881,0.0,-61.67052476190516,-54.66902600207351
1.881,0.0,-78.83998454301161,-45.55830750459149
1.882,0.0,-37.16034520647398,-22.126281573042
1.882,0.0,-41.32247636750822,-18.502300024041354
1.882,0.0,-30.997205158365375,-19.78538780388468
1.882,0.0,-30.31567217734299,-24.971995901103174
1.883,0.0,-42.030496329691346,-36.96368812927491
1.883,0.0,-47.11729504181237,-57.77630223824599
1.883,0.0,-68.51613105995122,-62.002436740220745
1.883,0.0,-83.6604949557537,-61.30117619684678
1.884,104.76190476190474,4.745250734123935,-0.672172197303869
1.884,236.1172161172161,113.60556933428569,80.69346076608376
1.884,220.8058608058608,93.80097432391352,75.89341108982885
1.885,207.9120879120879,64.37126527216415,68.5728020645879
1.885,207.9120879120879,72.9280980320961,53.529559290177474
1.885,197.43589743589743,52.49614066731534,56.035650944516135
1.885,193.40659340659337,80.97677966413917,61.2311531135537
1.886,180.5128205128205,52.84153430383316,30.364662137387377
1.896,0.0,-75.94435088551785,-58.44842841352619
1.896,0.0,-88.04357175727155,-60.3219938014571
1.897,0.0,-45.467429556894395,-46.904801615795755
1.897,0.0,-41.607365279326864,-40.899494282507426
1.897,0.0,-20.529441189360586,-29.444103651410135
1.897,0.0,-8.460685949523295,-10.829971510389472
1.898,0.0,-0.46586125393073274,5.522672284065892
1.898,0.0,8.360867954743224,12.899253936513901
1.898,0.0,10.382424223312757,14.254049673940283
1.899,0.0,12.957523544766381,12.074941513860297
1.899,0.0,9.753150025492,6.882474614536277
1.899,0.0,7.343226532603915,0.07625620805460342
1.899,0.0,-2.1626036180396557,-7.170075459412629
1.9,0.0,-10.35268193480805,-12.761737888328263
1.9,0.0,-22.52140470907353,-19.67230180860483
1.9,0.0,-44.054355097746736,-27.5970972931116
1.9,0.0,-46.15650333568533,-34.415154264425425
1.901,0.0,-89.92934702151699,-55.94213727677766
1.901,0.0,-73.65671192481719,-64.21228979421342
1.911,197.43589743589743,71.26927727364694,46.618254649582155
1.912,206.3003663003663,100.38305670316937,84.13848356379754
1.912,203.88278388278388,66.0030327921279,68.8239495399006
1.912,202.27106227106225,80.71173835057783,58.77260865358746
1.912,199.04761904761904,64.90034200397858,67.92937430012813
1.913,200.65934065934067,98.00005571821627,79.49545763372679
1.913,184.54212454212455,67.533673520704,40.83061968625687
1.913,0.0,-67.90527301650756,-58.385890577200506
1.914,0.0,-80.29010329465837,-53.63613543384147
1.914,0.0,-41.765338775547846,-32.7369388265121
1.914,0.0,-40.07455372038989,-30.604151893632125
1.914,0.0,-27.31385630167569,-29.8129394498467
1.915,0.0,-21.207693127009378,-28.70944538016167
1.915,0.0,-24.177305010437067,-30.35173371510006
1.915,0.0,-33.47223128898368,-30.157015969734232
1.915,0.0,-33.45629773945527,-28.910772789928345
1.916,0.0,-72.56900711988054,-37.96935410753109
1.916,0.0,-58.2543995046491,-40.88455878130105
1.926,170.84249084249083,52.869119134323874,29.791869352430098
1.927,170.03663003663002,67.98503219240547,45.83732305464293
1.927,192.6007326007326,40.44284685180955,43.12824269191131
1.927,190.989010989011,40.984834931786935,32.55306551673577
1.928,190.989010989011,14.680505635560042,19.295723751509186
1.928,185.34798534798534,2.955908384177384,8.928256570465765
1.928,191.7948717948718,1.37191433183159,2.406950529262432
1.928,185.34798534798534,-9.598621879029684,-1.107065598547385
1.929,187.76556776556774,-2.045055282501451,-6.3230409302854
1.929,193.40659340659337,5.6752235324477205,-5.52510106299928
1.929,189.37728937728937,13.411155584159651,7.640375516618551
1.929,192.6007326007326,35.17250714932563,28.427721775173886
1.93,193.40659340659337,38.78854301975564,44.60413355706411
1.93,191.7948717948718,83.66930191766414,60.69529963045656
1.93,193.40659340659337,69.52564125635966,43.688950280476874
1.941,0.0,-62.34025585463499,-47.93060398190224
1.941,0.0,-79.6293801073349,-48.817818331394896
1.941,0.0,-37.52021492290041,-38.14126363630352
1.942,0.0,-39.65950173488697,-36.04653669298252
1.942,0.0,-29.38879999832173,-31.194394951168093
1.942,0.0,-26.7539556692237,-22.767175382534894
1.942,0.0,-33.60889771747577,-20.88970654009926
1.943,0.0,-45.36054273517544,-31.62646285482679
1.943,0.0,-48.0460649422501,-42.527726501777884
1.943,0.0,-84.67053803946419,-61.90080231539321
1.943,20.952380952380953,-50.57384159492368,-56.684159274200525
1.944,210.3296703296703,93.17059450154031,54.173970313249086
1.944,231.28205128205127,127.6520844459015,101.13023023574243
1.944,212.74725274725276,92.7770334221535,99.83947671795998
1.945,208.71794871794867,79.85717849313404,83.43877897631333
1.945,197.43589743589743,100.51796307750057,75.33342487966051
1.945,195.8241758241758,69.53450320971993,53.44518987587374
1.956,0.0,-68.01507352496486,-46.49825888497496
1.956,0.0,-91.18038023612705,-70.29328344508309
1.956,0.0,-45.481762861430255,-52.62840121046732
1.956,0.0,-45.238777947877914,-42.497391953371434
1.957,0.0,-24.430323389104707,-19.02380729942545
1.957,0.0,-11.828053828496936,-3.4944794361736697
1.957,0.0,-4.561385546661162,4.978746514010222
1.957,0.0,5.897876534798387,8.130422712596916
1.958,0.0,8.485980872219447,8.483854606558287
1.958,0.0,12.18659876962376,7.403226370300671
1.958,0.0,12.362361961479866,7.701578955418165
1.959,0.0,9.106812269933743,6.9777158684750695
1.959,0.0,6.664196595582703,3.669583131990728
1.959,0.0,-3.135136901949674,-3.3000259838684283
1.959,0.0,-10.655782174769683,-16.591518582113252
1.96,0.0,-22.81019205990211,-31.114221146399597
1.96,0.0,-43.54432876962953,-38.41688385648465
1.96,0.0,-45.47036600842754,-40.187458143469684
1.96,0.0,-88.71842107070114,-51.15432709382286
1.961,0.0,-71.90123946568842,-52.48702420886935
1.971,193.40659340659337,68.30844836571379,46.26084297380854
1.971,196.63003663003664,93.25710219038137,70.18092125142005
1.972,197.43589743589743,59.70926416196957,59.148361729921945
1.972,198.24175824175825,78.86227178824143,59.56017829320495
1.972,199.04761904761904,64.47287115134148,68.38393444349688
1.973,196.63003663003664,93.92900997627511,74.46162669079189
1.973,191.7948717948718,75.0315566407681,52.77517657294134
1.973,17.728937728937726,-52.9662397344332,-36.00067703002355
1.973,0.0,-79.62889662206832,-45.042361258968725
1.974,0.0,-45.050419757010665,-41.78206792098765
1.974,0.0,-40.38957861217848,-40.0312001858391
1.974,0.0,-29.285154091203196,-33.292662142137736
1.974,0.0,-22.366124418132728,-26.04936166971722
1.975,0.0,-25.079745926993546,-22.950183738952042
1.975,0.0,-34.551702706973835,-24.104396799602057
1.975,0.0,-34.06589254987988,-27.78801870974916
1.976,0.0,-72.88501430097203,-45.32235415205379
1.976,0.0,-59.235943560169545,-53.50432797052642
1.986,170.84249084249083,53.74862949081296,26.34458207273844
1.987,175.67765567765568,71.9889221837926,53.643774893997985
1.987,192.6007326007326,42.530122837242246,41.0994167792406
1.987,190.1831501831502,38.017513957558855,16.77675730461211
1.987,186.15384615384613,12.701110964570608,13.076923966233997
1.988,187.76556776556774,3.342857765443167,14.131938160866502
1.988,186.15384615384613,-1.904569259307145,-0.8445869224031223
1.988,186.15384615384613,-9.473660531307072,-12.607731623343236
1.988,188.57142857142856,-0.3766996856483189,-3.339297432322834
1.989,192.6007326007326,5.376747526442507,12.14968150052739
1.989,193.40659340659337,18.084097791909777,15.931570279634641
1.989,190.989010989011,33.35786900998927,25.128357914654053
1.99,185.34798534798534,32.89936329971824,42.767564572674445
1.99,193.40659340659337,84.08887995941717,72.77383466999325
1.99,189.37728937728937,68.60990306933599,46.94104870961252
2.001,0.0,-62.426342552655754,-51.829667867676676
2.001,0.0,-76.75893200759103,-45.737162555506785
2.001,0.0,-34.65538958119742,-27.055790911800475
2.001,0.0,-36.793093906312656,-25.831863298609658
2.002,0.0,-23.03151852620742,-26.393147095278223
2.002,0.0,-22.28492916697835,-30.906222670042954
2.002,0.0,-25.902301351978092,-38.08445702807856
2.002,0.0,-35.25622843406525,-34.71749075767686
2.003,0.0,-46.74334649496434,-32.14205215009877
2.003,0.0,-63.7981746156983,-58.460916286477044
2.003,0.0,-83.85157757074062,-66.66462554425843
2.004,103.95604395604396,11.00926769512197,8.850323941300976
2.004,237.7289377289377,117.99555166894135,90.7904291083776
2.004,221.6117216117216,103.654443286864,92.86709237744614
2.004,211.9413919413919,84.23985442407894,71.19897321897956
2.005,204.68864468864467,70.02281829036978,73.14131089815947
2.005,193.40659340659337,89.61878589656368,66.38701368721976
2.005,193.40659340659337,65.3165723981349,42.665185719807766
2.016,0.0,-70.83985842423417,-49.96688067115875
2.016,0.0,-91.12535661006098,-49.49728101506101
2.016,0.0,-45.12546649748525,-35.69132043253356
2.016,0.0,-44.04804464196083,-33.223866835434436
2.017,0.0,-22.514331982881824,-26.850802937367018
2.017,0.0,-10.151233861753694,-14.167993526034275
2.017,0.0,-2.4095285038459586,-1.9273860343678904
2.018,0.0,7.259204021328998,6.952969543281357
2.018,0.0,9.393329218022993,12.273202968317557
2.018,0.0,12.58362887570161,13.55464139507488
2.018,0.0,9.763030954729238,10.982626835422256
2.019,0.0,7.844899694952214,4.55877179713045
2.019,0.0,-1.3828836182804647,-3.7952596050887264
2.019,0.0,-9.062694297416346,-10.596755800748799
2.019,0.0,-21.224709074815514,-19.68265689768863
2.02,0.0,-42.582506674151944,-31.472984722966473
2.02,0.0,-44.53142634113561,-42.519633967357834
2.02,0.0,-89.6954026385922,-67.48208639331523
2.02,0.0,-72.16162012771966,-77.61541898993575
2.031,196.63003663003664,67.84583211829631,31.241175235951093
2.031,202.27106227106225,95.38496184455036,72.23082769011579
2.031,195.018315018315,52.710664057330035,57.82072489347195
2.032,195.018315018315,63.02188396973213,54.33234642159229
2.032,195.8241758241758,62.716457494431644,54.19763949147501
2.032,198.24175824175825,66.36398625356297,55.46529482410961
2.033,194.2124542124542,88.8002661078996,56.28861086951846
2.033,144.24908424908423,34.19387729491799,30.01912244650572
2.033,0.0,-71.34038240269072,-42.06722919902538
2.033,0.0,-75.26723290880851,-54.97579459510042
2.034,0.0,-48.0667878938748,-47.296522324799795
2.034,0.0,-46.7284603842113,-28.739187789162767
2.034,0.0,-38.71990155145584,-28.961674998018836
2.034,0.0,-46.499119823825495,-40.18209764089797
2.035,0.0,-41.24040723502555,-47.77510925378322
2.035,0.0,-76.93545729996832,-56.28346354644344
2.035,0.0,-60.78277754073844,-37.00399010961471
2.046,181.3186813186813,64.28092200079327,49.501716727808954
2.046,180.5128205128205,78.60426676316982,47.848049474315495
2.046,175.67765567765568,26.408255620601235,29.397863372301476
2.046,173.26007326007326,24.72465011594338,31.81078440941956
2.047,193.40659340659337,19.24898657362237,30.239827476043505
2.047,191.7948717948718,10.583846722271169,14.358426290732108
2.047,193.40659340659337,3.709958722145977,-0.19899811906879483
2.048,191.7948717948718,-3.305423770746927,-0.6946225458473916
2.048,192.6007326007326,1.684858719493171,4.196683215278716
2.048,190.989010989011,1.8459784373738373,6.632714518271095
2.048,189.37728937728937,11.000843761567037,11.208121485585727
2.049,193.40659340659337,33.24221560473346,17.178114904494432
2.049,191.7948717948718,34.58199580759157,22.771831665901274
2.049,192.6007326007326,81.41110518291768,43.352187608297626
2.049,194.2124542124542,68.375146112694,54.56351222258124
2.06,0.0,-63.45272141854351,-43.52388161894612
2.06,0.0,-79.29341856026109,-66.68523499958442
2.06,0.0,-33.73975180672976,-36.740567322918054
2.061,0.0,-33.89352546647899,-16.751009360394022
2.061,0.0,-17.807518317978875,-13.753139208829186
2.061,0.0,-10.682224669483002,-21.618871664038195
2.062,0.0,-13.701569568218972,-10.92830683417203
2.062,0.0,-13.254791344032746,-3.6413807205342676
2.062,0.0,-23.375375250535903,-16.39802716870538
2.062,0.0,-37.909616091483024,-36.34635360916374
2.063,0.0,-42.4194001668708,-50.67397363028072
2.063,0.0,-75.60627306224595,-52.85142992067793
2.063,8.058608058608058,-57.64853971966079,-35.19161093592339
2.063,191.7948717948718,85.22390091520822,64.6865511518815
2.064,230.47619047619048,145.09042503667592,116.54421759076297
2.064,219.19413919413918,99.2961249824055,113.50432034915471
2.064,211.9413919413919,127.84681480436224,98.9780114845118
2.064,200.65934065934067,85.65302418224304,60.82874978403548
2.075,0.0,-65.24012730802144,-47.66069611776443
2.075,0.0,-85.75027868423467,-65.35146059101837
2.075,0.0,-45.57903014305627,-53.64265731302886
2.076,0.0,-44.88898015572566,-44.518181660703405
2.076,0.0,-25.431597698295686,-22.620740704998457
2.076,0.0,-13.390527864393567,-8.322075584824496
2.077,0.0,-5.771380012104716,-1.029167989936535
2.077,0.0,4.508315030429689,1.4128400755992805
2.077,0.0,7.729633813134239,1.3670381070229591
2.077,0.0,11.783064644480497,1.7629910675859644
2.078,0.0,12.55098715720397,7.120475676473778
2.078,0.0,9.766281590294765,12.710491059803873
2.078,0.0,7.859008721859915,15.546968637971531
2.078,0.0,-1.766715007488755,11.8644159104855
2.079,0.0,-9.043509093418685,-4.482029800945968
2.079,0.0,-21.43987191252115,-25.352443622680383
2.079,0.0,-43.03915865083468,-39.857161469895175
2.079,0.0,-45.242075915621335,-47.498686927325046
2.08,0.0,-91.73748217648557,-60.021319162562115
2.08,0.0,-75.0391077264085,-59.633654832241234
2.09,195.8241758241758,62.15412079183903,37.26127932193211
2.091,199.04761904761904,84.52802377255124,59.779939226439076
2.091,200.65934065934067,49.5337989840052,52.87710470575941
2.091,203.07692307692307,57.55199461711077,52.06096470882201
2.092,200.65934065934067,51.62983426243649,42.0994267477267
2.092,201.46520146520143,55.65919387727314,40.44794352560721
2.092,197.43589743589743,62.86306327161796,59.27170654658177
2.092,194.2124542124542,78.43592788340196,65.33011699425276
2.093,133.77289377289378,23.067093798072662,9.780525094231013
2.093,0.0,-76.49824589506767,-51.611996403780275
2.093,0.0,-80.26182637002204,-60.31530231021627
2.093,0.0,-52.62631530286908,-50.28590320840593
2.094,0.0,-54.56909111397525,-42.43455384620199
2.094,0.0,-54.69763974474147,-38.633597125521476
2.094,0.0,-45.99651015681923,-47.89850551745832
2.095,0.0,-81.4885395450535,-61.72906274540982
2.095,0.0,-60.86263514362609,-30.544006334605648
2.105,178.09523809523807,62.02511893914833,58.84932986366712
2.106,178.09523809523807,76.91475960433729,48.64459384317657
2.106,178.09523809523807,35.039423273210744,23.186207929482638
2.106,176.48351648351647,27.752719993831377,15.279881944251962
2.106,172.45421245421244,7.165259843780092,8.628826357985117
2.107,191.7948717948718,11.173304128979352,2.5838229756561804
2.107,193.40659340659337,10.797684274762185,-0.3860449918651158
2.107,188.57142857142856,-3.2614548983120137,-4.823537088741242
2.107,187.76556776556774,0.5865230098606915,-4.891268344569882
2.108,185.34798534798534,0.7012882561084979,6.706013283848957
2.108,189.37728937728937,13.107084015771424,21.651098758563393
2.108,190.1831501831502,32.99927481867039,29.38917628645949
2.108,188.57142857142856,33.70995867752656,31.87126815423712
2.109,190.989010989011,80.09034116829665,44.35187815539127
2.109,186.15384615384613,62.91807688843838,45.458965291523185
2.119,0.0,-64.47565052400749,-39.948839507060434
2.12,0.0,-77.51768993555108,-52.66009127287758
2.12,0.0,-33.790061611260604,-39.825912416811896
2.12,0.0,-32.90768728674222,-33.21443950586126
2.121,0.0,-14.776294647115693,-14.234540300727167
2.121,0.0,-9.122932682685548,-3.375608251522666
2.121,0.0,-5.920858796937267,-4.508202847614595
2.121,0.0,-7.596692749666474,-9.963135560429034
2.122,0.0,-13.21482603698611,-8.477472798970474
2.122,0.0,-19.300823984530233,-9.932423470409585
2.122,0.0,-40.45845296164232,-19.242886689102136
2.122,0.0,-34.081166938737454,-28.03585960246328
2.123,0.0,-78.52366613132742,-53.96597841661941
2.123,0.0,-53.17352418331631,-58.72123524615198
2.123,219.19413919413918,122.18950418549568,85.54824586157476
2.124,235.31135531135527,152.0416101534489,129.2441785584333
2.124,219.99999999999997,139.68818390278497,129.52168384847167
2.124,211.9413919413919,109.69483075627745,79.47160259392905
2.135,0.0,-54.98683330584035,-38.81196445667005
2.135,0.0,-84.04320277333969,-70.65156117210638
2.135,0.0,-39.42762811361479,-43.08791706754769
2.135,0.0,-45.447020442772626,-29.128650898783903
2.136,0.0,-24.35204780238601,-20.492595960230535
2.136,0.0,-14.178012312005501,-20.80472096902076
2.136,0.0,-6.962643408010832,-3.8450490606041003
2.136,0.0,3.592661975616558,13.625804782456745
2.137,0.0,6.361461876347095,19.19391543512882
2.137,0.0,10.975371017207763,18.3429136236444
2.137,0.0,11.768186314315976,13.283210968558683
2.138,0.0,9.376475275518981,4.987033332053084
2.138,0.0,7.709188764111589,-3.908072326272402
2.138,0.0,-1.6928574494355084,-12.575718639740362
2.138,0.0,-8.765437218170572,-19.29572828617496
2.139,0.0,-21.22600435691129,-26.607304832094236
2.139,0.0,-42.6836172150709,-34.09548402468733
2.139,0.0,-45.48517546320621,-39.989691960931076
2.139,0.0,-91.98132812568825,-59.95930220732518
2.14,0.0,-76.25881270742678,-67.25752639535071
2.15,198.24175824175825,62.19892608257508,39.66927607642601
2.15,204.68864468864467,88.07804090388339,75.47342079824402
2.151,203.07692307692307,45.112728575576696,53.276854340385086
2.151,193.40659340659337,45.047730030121755,36.88825688621261
2.151,206.3003663003663,44.5302617459023,36.40598334372597
2.152,201.46520146520143,51.8028659044957,50.02030239080304
2.152,197.43589743589743,44.99230693096965,51.6666142463234
2.152,198.24175824175825,76.54993224682056,53.567461014929485
2.152,203.07692307692307,74.61618862855502,49.04326843136239
2.153,47.54578754578755,-39.1026218836256,-24.44535799852926
2.153,0.0,-92.3108636186657,-61.052977624435776
2.153,0.0,-64.46768592686698,-64.23127306671248
2.153,0.0,-61.632687911850894,-60.29794771449422
2.154,0.0,-62.99662964137522,-48.57767381605771
2.154,0.0,-49.885919828667355,-50.216376671581294
2.154,0.0,-85.33554539632419,-60.215334393305405
2.154,0.0,-61.636707540217884,-37.33439479463675
2.165,179.7069597069597,62.71904267883504,41.9111621855804
2.165,176.48351648351647,76.97718514308049,39.53781088649645
2.166,178.09523809523807,36.11273089159809,24.95713451667298
2.166,173.26007326007326,26.91922051603435,18.05807916774294
2.166,167.61904761904762,5.1238545420527934,9.863487067864513
2.166,187.76556776556774,8.624848171173255,3.050680544653738
2.167,187.76556776556774,9.086571342417068,0.4267519332572039
2.167,188.57142857142856,-3.1582452377849926,1.9583881528398204
2.167,186.15384615384613,2.7338931725042386,6.633442619553021
2.167,190.1831501831502,5.203264471595769,13.147651840878055
2.168,187.76556776556774,13.391681976747126,20.777344645452747
2.168,188.57142857142856,32.05896912574493,24.65462838345385
2.168,188.57142857142856,33.10280670124135,27.033365067343603
2.168,187.76556776556774,78.65939463907222,46.1591226206674
2.169,190.989010989011,66.0691496156453,56.9313433914525
2.179,0.0,-62.77739368825119,-37.928920093048525
2.179,0.0,-78.35066717783847,-60.28141274478534
2.18,0.0,-32.7649589699084,-30.348398731027395
2.18,0.0,-32.205882298400404,-9.74688223766899
2.18,0.0,-14.017948642161526,-5.875408255066315
2.181,0.0,-7.023570446290464,-12.747786531653304
2.181,0.0,-5.065948760940593,-1.5571606192929957
2.181,0.0,-4.9701905488337985,6.096495310187531
2.181,0.0,-11.508283908248167,-9.711772552428563
2.182,0.0,-19.36510960341679,-30.797309830458886
2.182,0.0,-35.79249846828115,-36.97076606136138
2.182,0.0,-42.28499737742756,-37.05319980904108
2.182,0.0,-71.37133702812855,-52.77343005006131
2.183,0.0,-68.10316962891194,-46.40331198474719
2.183,161.97802197802196,60.213729615894756,43.39373698449983
2.183,234.50549450549448,147.90649510948518,131.948930480341
2.184,229.67032967032966,111.16417414413439,105.84193917208236
2.184,207.1062271062271,125.19638366314257,98.61324103477689
2.184,206.3003663003663,89.69693750563319,51.54184209715794
2.195,0.0,-62.307033166794724,-68.52081734024914
2.195,0.0,-86.85871275308772,-65.3783397627331
2.195,0.0,-43.922412969447564,-41.65923014067096
2.195,0.0,-44.522371181303306,-32.778310872552495
2.196,0.0,-24.43847827167332,-22.710170296660213
2.196,0.0,-12.409771629718579,-14.480675392217352
2.196,0.0,-4.769319084340344,-8.387636367600887
2.196,0.0,5.276883770399849,1.548183932506712
2.197,0.0,8.035367281258395,10.334928836279046
2.197,0.0,11.951444369148494,13.495501262433304
2.197,0.0,9.96392197159775,12.587307710173608
2.198,0.0,8.823593646837733,9.00268547666753
2.198,0.0,0.23632021744049148,1.549949983082841
2.198,0.0,-6.930248817819036,-11.016957979789321
2.198,0.0,-19.04370559472516,-24.789887300219075
2.199,0.0,-40.62109543237275,-32.778909270607215
2.199,0.0,-43.485507986840354,-36.43146615694113
2.199,0.0,-90.39385993099015,-50.69023359732724
2.199,0.0,-74.90483886159498,-55.56816800235861
2.21,197.43589743589743,61.629587654571736,36.30317903452127
2.21,200.65934065934067,83.7783812088186,56.30513321023271
2.21,199.04761904761904,39.01356338096093,42.58136871999286
2.211,198.24175824175825,46.15332846702789,46.27399060958706
2.211,201.46520146520143,35.93949083995397,38.72997104574821
2.211,198.24175824175825,36.32185414404695,39.76697124626994
2.212,197.43589743589743,46.01576164609703,41.23991583034378
2.212,197.43589743589743,47.37451361348792,38.405958415341374
2.212,203.07692307692307,85.76198779429532,51.091749820573064
2.212,173.26007326007326,47.909522131408124,36.768265877554164
2.213,0.0,-81.59397091421567,-60.037161553508845
2.213,0.0,-93.78074634006316,-80.34131240766598
2.213,0.0,-62.51192383874303,-67.51988461840932
2.213,0.0,-76.11921487610479,-55.65772700139521
2.214,0.0,-57.649865511646,-61.85996208613544
2.214,0.0,-89.69857650994197,-72.15319975638486
2.214,0.0,-68.67089579979505,-41.60193272462328
2.225,182.93040293040292,63.92774451696851,57.08882793229402
2.225,183.73626373626374,80.84267186972029,51.34950408947792
2.225,180.5128205128205,35.49710005115017,30.392098162241656
2.226,176.48351648351647,31.253667322191113,24.554325967457
2.226,176.48351648351647,8.889068357923179,18.21209656090884
2.226,176.48351648351647,1.1744130990912804,11.804572090813787
2.226,192.6007326007326,9.121251016341287,7.7004736388785275
2.227,189.37728937728937,0.45928598751319427,2.109501940045183
2.227,188.57142857142856,2.951343910912655,-0.0709476643563498
2.227,191.7948717948718,7.204209653257662,6.691771745451675
2.227,185.34798534798534,10.673305783053923,17.170114175270363
2.228,185.34798534798534,27.704784064318847,23.778746649808504
2.228,189.37728937728937,33.9885272707199,27.11615516796235
2.228,192.6007326007326,81.64072481054957,42.65586981315221
2.229,190.989010989011,65.60456271732662,46.32682210779086
2.239,0.0,-64.8002212865612,-41.01358528058792
2.239,0.0,-79.74475373757802,-54.566511629158235
2.24,0.0,-34.600905433850414,-39.52754124460347
2.24,0.0,-33.993908911049985,-32.996922595759166
2.24,0.0,-15.393793640464311,-14.10364504205271
2.24,0.0,-7.790028038866957,-3.2052595181264127
2.241,0.0,-5.220206757422908,-1.243385521323559
2.241,0.0,-2.5921718663987576,-3.5539123206368783
2.241,0.0,-8.68685273911823,-3.339402399092593
2.241,0.0,-11.883731370066833,-6.332117211661063
2.242,0.0,-26.215519944391993,-12.317081092516306
2.242,0.0,-30.354588840303542,-21.027774176301936
2.242,0.0,-48.83732385674533,-50.33172463840156
2.243,0.0,-56.19788176474867,-56.74924336580841
2.243,92.67399267399267,32.67403280977259,20.281411460220358
2.243,202.27106227106225,118.66887877038921,101.46713605617524
2.243,219.19413919413918,165.69070835682624,123.67405370590113
2.244,211.1355311355311,117.15885155242724,100.78006449163608
2.254,0.0,-42.27842020812548,-23.91170508454351
2.254,0.0,-74.07230785533469,-61.30136906928194
2.255,0.0,-34.332943673260985,-34.974339704026136
2.255,0.0,-39.567891416579286,-19.319311360390813
2.255,0.0,-22.50821160702302,-17.37632875833377
2.255,0.0,-12.448150670795869,-25.65180177197251
2.256,0.0,-6.767445201498656,-15.014112283776218
2.256,0.0,3.129272941690415,-0.8086335201141113
2.256,0.0,5.693026568782068,7.58421128425377
2.257,0.0,9.934608170236327,13.053381411602494
2.257,0.0,10.933865750516105,15.226106653780729
2.257,0.0,8.6248170783454,13.638842929382575
2.257,0.0,7.267868258682744,8.432613458226506
2.258,0.0,-1.7683501410445999,1.3435531316403417
2.258,0.0,-8.4992895205132,-4.51950163984959
2.258,0.0,-20.51335676722792,-12.668097776286764
2.258,0.0,-41.643021906431166,-23.384600469800674
2.259,0.0,-44.1625805892777,-33.8018482860053
2.259,0.0,-90.37215091384347,-58.50665410322575
2.259,0.0,-74.92193915080387,-71.09112190274112
2.27,195.8241758241758,61.409582826761195,31.146224138950565
2.27,199.04761904761904,82.74399101423089,61.00018865842974
2.27,195.8241758241758,38.491494915881404,35.07000483394137
2.271,197.43589743589743,46.95476639274628,26.22674884720363
2.271,200.65934065934067,38.35567204698951,25.702738601795524
2.271,197.43589743589743,39.372977985922375,39.366250281353615
2.271,197.43589743589743,47.92941031161148,52.420764043720645
2.272,197.43589743589743,54.93877684500869,54.351779653587904
2.272,198.24175824175825,80.17078467260198,50.19797721842497
2.272,141.8315018315018,26.31814388115131,14.075250062120931
2.272,0.0,-82.87315436069069,-57.88111586684607
2.273,0.0,-86.24236733487747,-63.90335364577011
2.273,0.0,-61.761255031211135,-62.71666053438832
2.273,0.0,-72.59157306011528,-54.30417777877702
2.273,0.0,-55.90581701595994,-60.352619563465936
2.274,0.0,-88.40617101190028,-68.74895527798665
2.274,0.0,-67.69330885225031,-45.20880887584201
2.285,181.3186813186813,62.80924753564946,45.98789893587003
2.285,182.1245421245421,79.25709879770496,49.92879013044268
2.285,180.5128205128205,35.247563781728566,39.66444938473803
2.285,180.5128205128205,35.28754849359869,31.40925285191558
2.286,178.9010989010989,9.791081288226223,18.333625307832275
2.286,171.64835164835165,-2.9850137697795773,5.722143220936854
2.286,193.40659340659337,7.363915973636201,-2.352009064974843
2.286,189.37728937728937,1.4276655443495834,-3.4603644712715957
2.287,191.7948717948718,3.5639454263538113,0.15644196291719892
2.287,189.37728937728937,5.376843517892739,4.993913203401691
2.287,187.76556776556774,11.25450468858513,12.444578654118171
2.287,190.1831501831502,32.70227203991935,20.064987712455082
2.288,191.7948717948718,35.478897191125995,26.744805694043208
2.288,189.37728937728937,78.6412057877687,47.29593137453097
2.288,189.37728937728937,63.88764152139991,58.00072111634945
2.299,0.0,-64.24464311441272,-36.63288033000108
2.299,0.0,-79.04528145546702,-60.29133447316781
2.299,0.0,-33.664201291082165,-32.9846085063801
2.3,0.0,-32.67192385419056,-13.777173889145379
2.3,0.0,-14.287075070040174,-9.172709177993433
2.3,0.0,-6.1702079773424,-14.077192319793543
2.3,0.0,-4.4950833197119415,-0.7926920461794624
2.301,0.0,-1.6645283059629676,8.84176277073014
2.301,0.0,-8.72536137646825,-6.987908130046971
2.301,0.0,-14.186453261186784,-28.035041848062484
2.301,0.0,-26.86306981573467,-29.366481190996716
2.302,0.0,-39.35800300498467,-28.122219498560813
2.302,0.0,-51.55839696553465,-54.14979783904473
2.302,0.0,-70.67271345954416,-60.5609061609777
2.303,85.42124542124542,10.937161694541345,11.098579391907556
2.303,219.19413919413918,129.54058710229742,95.17881172488117
2.303,211.9413919413919,116.54610763719361,108.43452885501725
2.303,206.3003663003663,126.51046987422554,107.81661088880949
2.304,201.46520146520143,98.02798922103358,73.07901011125662
2.314,0.0,-57.028008402531356,-46.42740150681059
2.314,0.0,-81.19649753610965,-45.081682106707866
2.315,0.0,-39.55979435722254,-25.63564474585651
2.315,0.0,-42.65203533270952,-22.551413955099235
2.315,0.0,-22.502163597237697,-18.205801049279092
2.316,0.0,-12.159047825196609,-14.153633919618017
2.316,0.0,-4.678075056455887,-10.876304318539677
2.316,0.0,4.839865801629111,-2.9076825147040726
2.316,0.0,7.370668237430212,5.533039454724663
2.317,0.0,11.31247926128113,10.374200920706382
2.317,0.0,9.3366470320583,12.139572918776004
2.317,0.0,8.332872542760963,11.960418319710985
2.317,0.0,0.06738224507493662,6.2603852234659145
2.318,0.0,-6.978497022355139,-9.0189760032951
2.318,0.0,-18.667830937919145,-27.373248312888105
2.318,0.0,-39.866087910050666,-40.02974810582252
2.318,0.0,-42.883151818710004,-46.3547008283916
2.319,0.0,-88.4504391249288,-57.914512681932486
2.319,0.0,-74.55633339253468,-57.94252184176541
2.329,193.40659340659337,60.43820290924651,37.59847261390401
2.33,202.27106227106225,85.43544086111697,63.22555344602502
2.33,195.018315018315,37.48130437040031,42.46896604752797
2.33,193.40659340659337,40.795729856901175,35.79703986453357
2.331,197.43589743589743,33.20221760938721,23.265427756251057
2.331,196.63003663003664,32.43606496420927,22.814318259217394
2.331,195.8241758241758,44.00175883206187,25.50078957970833
2.331,195.018315018315,41.203466995726316,31.474805068839803
2.332,193.40659340659337,71.92428914871007,53.215267118335824
2.332,192.6007326007326,65.0040451468632,59.49019007448875
2.332,41.0989010989011,-49.20129404439324,-19.311788546505845
2.332,0.0,-94.2858250245545,-74.70930781335021
2.333,0.0,-71.13434672112938,-75.85972384177755
2.333,0.0,-77.68864829107204,-60.82650119222025
2.333,0.0,-62.12550091006205,-67.11242489566553
2.334,0.0,-92.39633294702179,-70.31516308728581
2.334,0.0,-69.15391698653826,-33.1433618507659
2.344,184.54212454212455,63.48103038286691,66.78257567588177
2.344,181.3186813186813,80.2865682567246,60.374414672334645
2.345,184.54212454212455,39.65274629961996,34.63558153884667
2.345,178.09523809523807,35.39301759802113,18.514565912106413
2.345,172.45421245421244,7.636937526276585,3.1179622324087775
2.346,168.42490842490844,-4.308130360487038,-3.015091436247265
2.346,181.3186813186813,1.9672088628358537,-2.9165799231465916
2.346,185.34798534798534,-0.4832079172376016,-5.548236481306287
2.346,186.95970695970695,4.896427697564572,-4.432401373953426
2.347,189.37728937728937,8.512635775958023,6.180908858792939
2.347,185.34798534798534,12.973687734021564,19.943250198770617
2.347,182.93040293040292,28.622414157168418,29.098905396115274
2.347,188.57142857142856,34.86883648338148,33.98684966645257
2.348,188.57142857142856,79.42170603280141,48.16646745974193
2.348,185.34798534798534,61.46299764660501,50.777971664557576
2.359,0.0,-64.38900578512958,-31.790467495968468
2.359,0.0,-78.7927139029547,-45.66752162545837
2.359,0.0,-34.621010871643286,-33.930603031863015
2.359,0.0,-33.44771073576344,-30.148812827615902
2.36,0.0,-15.201396705199397,-15.611840002834589
2.36,0.0,-6.388925169692758,-7.492366722793983
2.36,0.0,-4.217777750847507,-4.857459299029209
2.36,0.0,0.9337661679949001,-5.014785673863788
2.361,0.0,-5.110804229129702,-2.262576964949367
2.361,0.0,-6.926136076369108,-3.3302251899632567
2.361,0.0,-16.154755870050813,-13.012873039369545
2.361,0.0,-27.74295350376611,-26.44954617493876
2.362,0.0,-29.3205442605353,-38.88552175814672
2.362,0.0,-57.03368223866925,-37.726656549895
2.362,0.0,-37.681802845865214,-16.457715856058435
2.363,166.8131868131868,85.20691251266577,64.72184918136062
2.363,234.50549450549448,195.58547129478222,150.62723110892486
2.363,221.6117216117216,134.15717743924125,113.00250096921246
2.374,0.0,-35.731280973631144,-24.90515940175501
2.374,0.0,-68.32500238776717,-63.26108369930728
2.374,0.0,-31.66995614608766,-39.66265378597578
2.374,0.0,-36.92979479246898,-22.642289289388074
2.375,0.0,-21.76625337489732,-17.720548403415215
2.375,0.0,-12.101199975300437,-23.095256138521187
2.375,0.0,-7.037951780636556,-8.35193588247911
2.375,0.0,2.484056817201795,8.05816233335934
2.376,0.0,5.041056748746542,13.569616651689113
2.376,0.0,9.217224983960893,13.858914482727652
2.376,0.0,10.44734067403143,10.853880170450822
2.377,0.0,8.357942051431989,5.072608529782738
2.377,0.0,7.361901826478722,-1.3832231667899946
2.377,0.0,-1.285467894653494,-7.7657354108489764
2.377,0.0,-7.600722241161856,-12.409591369413775
2.378,0.0,-19.138877383194206,-18.153064590327347
2.378,0.0,-39.97951866937823,-24.98645221043455
2.378,0.0,-42.04627924749857,-31.026541550274814
2.378,0.0,-88.34175357059921,-51.55844640377314
2.379,0.0,-72.88060760849994,-60.89332306635162
2.389,195.018315018315,62.21728483849131,41.05304875413932
2.389,199.04761904761904,82.62596665055678,69.37064032216853
2.39,195.8241758241758,38.59616592785042,41.58558086287651
2.39,195.018315018315,38.95222430047653,22.36176256168722
2.39,195.018315018315,28.94541127247807,21.03648305121104
2.391,195.018315018315,24.310179234174683,32.084484664063616
2.391,193.40659340659337,29.921046361235604,24.98713346954745
2.391,197.43589743589743,40.431048235915654,19.951522812128758
2.391,197.43589743589743,45.379453030655846,45.73646555878437
2.392,192.6007326007326,68.24001994575153,53.566501053154056
2.392,167.61904761904762,31.848168873589206,8.507059886219023
2.392,0.0,-93.79515857028646,-82.46410399131518
2.392,0.0,-120.20172512635025,-87.43443152216095
2.393,0.0,-79.71684228899211,-69.95511645374592
2.393,0.0,-119.72218052946845,-78.81749588805096
2.393,0.0,-83.78414986791431,-65.27405385101335
2.404,189.37728937728937,56.09788180076673,39.64638087013731
2.404,185.34798534798534,75.49563160295243,65.00241637800882
2.404,184.54212454212455,36.94284301921381,40.86400552697715
2.404,181.3186813186813,36.16786843041063,19.313356616974733
2.405,178.9010989010989,16.189895770041353,12.712028556967697
2.405,173.26007326007326,3.6187579627133193,15.003024763154693
2.405,170.03663003663002,-6.00015724410865,0.47428530670134256
2.406,167.61904761904762,-11.24326089685339,-11.998141771361455
2.406,185.34798534798534,6.461671652408366,-5.581463151924596
2.406,181.3186813186813,7.594043903021601,6.461042088183882
2.406,182.93040293040292,14.468469650475743,8.200161390501803
2.407,184.54212454212455,34.49452285332192,15.116970272161442
2.407,182.1245421245421,32.49934794121422,34.103188916669694
2.407,183.73626373626374,76.29806345330992,59.00445619734964
2.407,182.93040293040292,61.59086955057909,36.06106809254814
2.418,0.0,-63.923796257704055,-55.03547573736449
2.418,0.0,-77.92143795972511,-46.68554661585679
2.418,0.0,-34.49701897054073,-25.750254711311353
2.419,0.0,-32.98355245397177,-22.452295971680893
2.419,0.0,-14.080318830203552,-18.72464402741527
2.419,0.0,-4.582814435913125,-11.950405551373459
2.42,0.0,-0.011533283949226814,-5.70354068645581
2.42,0.0,6.0238943140388095,2.684297670163692
2.42,0.0,4.043315195836552,8.495733768508588
2.42,0.0,3.939476543056827,5.216747005937775
2.421,0.0,-2.8851035951863153,-1.0841529535926546
2.421,0.0,-8.060457386774177,-3.954372691877913
2.421,0.0,-17.46858491578769,-8.536028591195603
2.421,0.0,-29.620999033528072,-11.691598666391679
2.422,0.0,-32.702072723186404,-15.77333690887759
2.422,0.0,-57.077181881409516,-52.73504292878291
2.422,0.0,-42.706315676709316,-60.95041573272517
2.422,157.1428571428571,77.88078296807218,67.15796136042833
2.423,243.36996336996336,199.57279096916886,177.41629326994413
2.423,220.8058608058608,135.92245923760876,98.60688680386099
2.433,0.0,-38.07864320251033,-43.34570591062336
2.434,0.0,-67.00467913109975,-50.95519590098825
2.434,0.0,-31.454098940966922,-25.820099574663846
2.434,0.0,-36.183209571389135,-20.67471338247767
2.435,0.0,-20.34404104968446,-13.594254343966918
2.435,0.0,-11.251818761833919,-10.523166170173225
2.435,0.0,-5.457909395449953,-8.616035242259345
2.435,0.0,3.2545946844007654,3.506331225782434
2.436,0.0,5.605603064586428,15.528066806514369
2.436,0.0,9.463768060076195,17.520940126156077
2.436,0.0,7.898731658959667,14.092051372188159
2.436,0.0,7.433865786021427,8.773766411728044
2.437,0.0,-0.26730796372461096,-0.24456317122150337
2.437,0.0,-6.4683467067062015,-13.861063157256245
2.437,0.0,-17.532189944169517,-28.204657994416806
2.437,0.0,-38.16939579759662,-36.894372976594624
2.438,0.0,-40.24841075819394,-40.64656881891139
2.438,0.0,-86.51643982786638,-53.422017686184454
2.438,0.0,-71.21767332456349,-56.63959193469151
2.449,193.40659340659337,61.427883577295184,34.20736038317824
2.449,195.018315018315,79.4702485393051,51.98957985374405
2.449,195.8241758241758,37.07611202414229,39.77645761524818
2.45,195.018315018315,38.021235208581054,33.96573081073373
2.45,193.40659340659337,21.857241904188776,18.572738201589356
2.45,197.43589743589743,22.356238963618047,13.996903965690862
2.45,199.04761904761904,26.51318554979237,22.95652457442524
2.451,197.43589743589743,27.86669850002503,36.508336290098065
2.451,193.40659340659337,35.04895003753103,45.429485899201715
2.451,190.989010989011,39.00786622511259,39.727487824347456
2.452,192.6007326007326,59.56957328769091,33.16739860237956
2.452,126.52014652014651,-5.363694482808686,-11.012890178550451
2.452,0.0,-115.81250891021315,-92.2559387163253
2.452,0.0,-110.17050199253379,-99.54467281964867
2.453,0.0,-123.57925383772894,-97.77697914175874
2.453,0.0,-98.565766354087,-66.28441579377558
2.463,191.7948717948718,49.839646589363426,31.07805681581801
2.464,190.989010989011,76.69372889041918,52.289068947857295
2.464,189.37728937728937,34.7257916140244,38.488271594984475
2.464,181.3186813186813,36.628153737187716,32.11334216524083
2.464,181.3186813186813,15.854320797081632,6.811756095114184
2.465,169.23076923076923,1.0396090379782468,-9.685879120249439
2.465,172.45421245421244,-0.5633915796382123,-10.951065714853161
2.465,167.61904761904762,-11.700396570224491,-4.752073031740057
2.465,167.61904761904762,-3.554772908934728,-0.2416146827534033
2.466,186.15384615384613,10.967708184756766,6.70943992931328
2.466,178.09523809523807,17.513438390770848,16.483590512901536
2.466,181.3186813186813,31.243543202176085,29.242807619274153
2.467,177.28937728937728,32.684408023267885,38.01847614409362
2.467,182.1245421245421,75.81667277549506,48.784329317860845
2.467,180.5128205128205,61.44394319117666,33.01536965434458
2.478,0.0,-63.17128404830581,-47.84442530996924
2.478,0.0,-77.62665257276328,-44.952017484875874
2.478,0.0,-34.93027985489998,-30.93521988947796
2.478,0.0,-33.978658480480796,-26.061845337136685
2.479,0.0,-15.689589635839546,-17.26663579061299
2.479,0.0,-6.0735589439707915,-1.775010581023237
2.479,0.0,-1.8271734123217946,10.787530924104361
2.48,0.0,4.863814520141954,13.101707991844957
2.48,0.0,4.4393627907684525,9.659188893259483
2.48,0.0,3.9245436047985844,4.75207646065035
2.48,0.0,3.32033291143771,-1.5993824892164668
2.481,0.0,-4.720678577540202,-9.273715873210081
2.481,0.0,-4.220871146649032,-14.982977612394908
2.481,0.0,-14.826642234970226,-10.908919337611634
2.481,0.0,-20.828466904316556,-5.958135345850052
2.482,0.0,-14.31058325388146,-15.877837424457852
2.482,0.0,-49.20420684649289,-28.226826491796793
2.482,66.88644688644689,67.02001490928112,55.508462058603634
2.482,240.95238095238093,171.30116342547672,131.07099280375257
2.493,0.0,5.025025306167884,8.478549183772863
2.493,0.0,-56.1170599243466,-45.56233255909966
2.494,0.0,-6.71127461244552,-11.06399184618828
2.494,0.0,-25.851563498023943,-11.60364483629451
2.494,0.0,-11.847181261480243,-11.778160385918586
2.494,0.0,-5.313726966079884,-22.505573898075625
2.495,0.0,-4.880741393072003,-15.750328642579463
2.495,0.0,4.3796441582292145,-4.960073896688241
2.495,0.0,4.207363924271669,-0.030365806663214687
2.495,0.0,8.25598234815324,3.0588072656490204
2.496,0.0,8.868628604672702,5.814885544250485
2.496,0.0,6.762745055379643,6.221208687715988
2.496,0.0,6.143498233566966,2.8488511674023176
2.496,0.0,-2.2458677339054685,-2.0470463494446918
2.497,0.0,-7.881064522294388,-5.256924619595079
2.497,0.0,-19.122351652390897,-10.55366654482769
2.497,0.0,-39.252405056889785,-18.294283730852342
2.498,0.0,-41.25125741168126,-26.11069223852607
2.498,0.0,-87.31488655204718,-49.08899941548673
2.498,0.0,-71.70206398595863,-60.590907271522596
2.509,193.40659340659337,60.29453984050537,37.48559567226246
2.509,194.2124542124542,78.62793889356908,63.76309747590198
2.509,198.24175824175825,37.17315697488258,38.18790513487534
2.509,197.43589743589743,40.52716929407893,21.02958620483315
2.51,198.24175824175825,22.76854414207029,17.759883865778573
2.51,195.8241758241758,19.7226158202805,25.01765878084933
2.51,195.8241758241758,18.87078882297063,17.90471357311284
2.511,194.2124542124542,19.56729645577631,13.408130039685247
2.511,198.24175824175825,38.42177320016834,23.60825245437797
2.511,197.43589743589743,33.20999405240093,31.9770819885986
2.511,194.2124542124542,64.61818590819541,43.62698896483067
2.512,175.67765567765568,27.616595611163024,34.277070772380846
2.512,0.0,-112.31661920334716,-78.07630124071622
2.512,0.0,-121.79911821998247,-106.03057366897433
2.512,0.0,-124.45484756633323,-114.36617093553072
2.513,0.0,-103.50901354889423,-83.072822557401
2.523,194.2124542124542,49.81697796185406,26.857114933507958
2.523,189.37728937728937,72.32963595866362,54.53374208856346
2.524,183.73626373626374,28.894494450728928,29.155267120255665
2.524,184.54212454212455,36.305686615878216,18.19631948587942
2.524,178.9010989010989,15.024185177752317,14.219696431542085
2.525,175.67765567765568,4.092838703855521,18.18127162845581
2.525,173.26007326007326,0.5368993380471938,-0.4468432714231881
2.525,167.61904761904762,-12.888784037588916,-17.14955012724345
2.525,168.42490842490844,-5.68857150548716,-7.971961404153395
2.526,184.54212454212455,10.778083909235395,9.231121027530536
2.526,188.57142857142856,22.644528445724976,15.43476957545768
2.526,180.5128205128205,32.90255281430337,24.9367065713571
2.526,182.1245421245421,32.27496940433983,41.24932520418426
2.527,180.5128205128205,75.95545701469796,62.09054578974195
2.527,184.54212454212455,62.19158000920483,37.63911410360983
2.537,0.0,-62.56171806927702,-53.90286007398604
2.538,0.0,-78.65921999925033,-43.42309831284096
2.538,0.0,-34.736941760845895,-19.21840482069167
2.538,0.0,-33.53578222096481,-11.919986888824512
2.539,0.0,-15.014787123405942,-6.355123399586177
2.539,0.0,-5.07836178695749,-3.429686746584154
2.539,0.0,-0.5040215107081067,-3.505070687635915
2.539,0.0,5.805755800729919,-1.5693158268409293
2.54,0.0,5.4096157563588,-0.10154446865085942
2.54,0.0,4.615183152735151,-1.9550770544708713
2.54,0.0,1.515289648634166,-4.449904371255325
2.54,0.0,-4.388741690449837,-4.478097333814713
2.541,0.0,-11.459105297425157,-7.100376432062748
2.541,0.0,-17.535812320626164,-12.040427100163457
2.541,0.0,-31.11293266536835,-21.23250075415502
2.541,0.0,-31.150806312627374,-46.18996856605032
2.542,0.0,-48.361701933240376,-47.86764429265056
2.542,41.0989010989011,-6.051101007415792,0.6730772897058515
2.542,224.8351648351648,177.87374230465363,152.92960622439182
2.543,232.0879120879121,169.0726594180011,127.11243887843628
2.553,0.0,-32.456377318418774,-44.85150423077574
2.553,0.0,-58.13251739379818,-41.53051233073214
2.554,0.0,-23.68617091526678,-21.38886429066791
2.554,0.0,-33.30180608376469,-15.185504660371928
2.554,0.0,-15.938520402686368,-5.76544686738926
2.554,0.0,-10.336659927773342,-7.464246956421672
2.555,0.0,-4.356871891899787,-12.042748912944425
2.555,0.0,3.2852841033047184,-5.091178130496865
2.555,0.0,5.147918101910488,4.630849209826699
2.555,0.0,9.01477526696289,10.41088643619705
2.556,0.0,7.194879795383296,13.76950329394723
2.556,0.0,6.935614016638018,15.584805990408773
2.556,0.0,-0.6193061964425821,11.672555588472417
2.557,0.0,-6.643690112047494,-2.4927035209500685
2.557,0.0,-17.428952750408577,-20.322297661592167
2.557,0.0,-37.794130586531985,-32.69920543976857
2.557,0.0,-39.95829742238602,-39.81834345418514
2.558,0.0,-85.57996109712386,-53.80733162374777
2.558,0.0,-71.17980431202028,-57.35103128622025
2.568,193.40659340659337,62.24048926175246,33.7859813961057
2.569,199.04761904761904,83.12001256162361,54.452885432538295
2.569,195.8241758241758,36.071565017904824,39.18708004678791
2.569,194.2124542124542,35.83089057312501,34.55836817196089
2.569,196.63003663003664,20.996348618135613,16.4596510998489
2.57,195.018315018315,14.96813698892511,8.836283201902507
2.57,195.8241758241758,16.323566947345466,17.143188559193195
2.57,195.8241758241758,14.55794568838083,29.336976042127485
2.57,196.63003663003664,28.36010655175892,26.41629096145173
2.571,197.43589743589743,28.33426187784571,19.66834133046609
2.571,195.018315018315,45.72561486886992,33.58337640218976
2.571,193.40659340659337,46.765268329709514,29.766576292283982
2.572,90.25641025641025,-49.98707264317381,-44.87057435973985
2.572,0.0,-119.43557353463119,-116.4443438187148
2.572,0.0,-147.70755697641746,-116.37913767115242
2.572,0.0,-107.24191168161296,-82.16865885535046
2.583,197.43589743589743,40.22203598770811,23.190964582755566
2.583,195.018315018315,70.76624882534256,53.7302663413909
2.583,193.40659340659337,32.55179230817716,44.22254363992559
2.584,187.76556776556774,33.7110669733259,35.61367509812736
2.584,178.09523809523807,11.336011466088411,15.006500409157672
2.584,179.7069597069597,5.84265958292254,1.3180618809642806
2.584,178.09523809523807,3.4134148274379235,-3.3846028877805443
2.585,168.42490842490844,-10.552016109649092,-3.162521305029093
2.585,170.03663003663002,-5.66037499564308,-6.463362428667962
2.585,173.26007326007326,2.748654309942701,-4.687160243593571
2.586,185.34798534798534,19.34106279361085,9.931681315732385
2.586,180.5128205128205,35.054833834628056,30.760112012618556
2.586,181.3186813186813,33.11399650810995,38.68628866640296
2.586,181.3186813186813,77.02462485502868,53.68968864113921
2.587,181.3186813186813,60.65512640971509,37.485654906599166
2.597,0.0,-63.429502586622704,-42.63949789824475
2.597,0.0,-78.54020776498143,-39.92644269855826
2.598,0.0,-36.28047609900768,-27.56114415899391
2.598,0.0,-35.15460288901914,-27.3048227603887
2.598,0.0,-17.221185317272326,-24.172140688307245
2.598,0.0,-7.4672748769572195,-14.14831647365634
2.599,0.0,-2.760628508494566,-4.799784262383628
2.599,0.0,4.304300083207227,-0.5171124170454117
2.599,0.0,5.079350777913083,0.95339555025132
2.6,0.0,6.354276159594862,0.9309995282698891
2.6,0.0,6.701684212031051,0.3356268197747207
2.6,0.0,3.600444390371914,0.8580398609179348
2.6,0.0,3.682964086412501,1.972373568421302
2.601,0.0,0.45435422685330185,4.076110570671203
2.601,0.0,-4.0608483937788336,5.679157823604013
2.601,0.0,1.7746191217347471,2.560116304603103
2.601,0.0,-15.933302977504137,0.6798894497128368
2.602,0.0,6.731982013182614,9.527102512703154
2.602,73.33333333333333,50.42336949610588,17.385095236763064
2.612,0.0,6.234239627487866,9.882741288449902
2.613,0.0,-16.936133226355274,0.08087592127902522
2.613,0.0,0.3908107166392085,1.4267952819254859
2.613,0.0,-5.866540057180673,4.839887182950906
2.614,0.0,-1.4403398105665355,2.847882183219069
2.614,0.0,1.705345786598195,0.1939384779877668
2.614,0.0,1.9495426556771895,-0.4171607647537877
2.614,0.0,5.974407748876845,-0.22619752814819463
2.615,0.0,6.279693998961077,0.6219607557731353
2.615,0.0,7.892734619905758,1.5093565764300385
2.615,0.0,8.222488490831273,1.8986529271657544
2.615,0.0,5.759828329447897,0.7455419202927936
2.616,0.0,4.819351279987033,-3.860928502764195
2.616,0.0,-3.1665621470677645,-9.461362618121044
2.616,0.0,-8.821631746698007,-12.590915327971388
2.616,0.0,-19.575313314797413,-16.857088892040785
2.617,0.0,-39.44985456295625,-22.302717440921707
2.617,0.0,-41.36218341036186,-27.47132700153206
2.617,0.0,-86.74217014619462,-47.70230021307926
2.618,0.0,-72.05078685401871,-58.00471539877093
2.628,193.40659340659337,61.0958245830808,40.134415434950384
2.628,199.04761904761904,82.3307704547081,67.31924948669301
2.629,197.43589743589743,35.99751010078309,35.85905820870018
2.629,197.43589743589743,37.582438723587366,17.812280160891397
2.629,202.27106227106225,24.151527145797214,13.788880213930804
2.629,195.018315018315,11.85188177457141,21.06957673747411
2.63,197.43589743589743,13.940851999393818,13.480905650301032
2.63,197.43589743589743,12.19701737895167,7.2182417264782
2.63,197.43589743589743,20.259864351841063,10.215506218960343
2.63,194.2124542124542,24.871909834761205,18.282751626303753
2.631,194.2124542124542,26.639672287378435,37.031129234642606
2.631,195.8241758241758,55.565446678192316,43.5957528624679
2.631,167.61904761904762,4.062481814339328,-12.88836779388479
2.632,0.0,-113.57383577523501,-94.81409662865471
2.632,0.0,-163.46333438390783,-123.34113366068149
2.632,0.0,-108.84574830186502,-93.98910357809218
2.643,188.57142857142856,26.62952494902473,10.233911023351332
2.643,197.43589743589743,68.38010132520702,60.00637471355023
2.643,192.6007326007326,31.66865943558183,38.57058082680085
2.643,186.15384615384613,29.85314488419159,16.14908118026818
2.644,182.1245421245421,16.149672188968346,15.926664738297227
2.644,180.5128205128205,6.80916226584689,22.215071470719014
2.644,176.48351648351647,3.889157724673185,1.8429363279949096
2.644,168.42490842490844,-10.10836644574254,-17.319688795085252
2.645,161.97802197802196,-10.333714595556792,-10.296916465242912
2.645,167.61904761904762,-2.5618589429462864,4.8339833767295275
2.645,181.3186813186813,18.42390333126705,9.59757104887039
2.646,186.15384615384613,41.718435114235064,18.66135895854464
2.646,182.93040293040292,36.13545263822594,33.97264099822136
2.646,175.67765567765568,73.31696468683366,56.52766806861392
2.646,182.1245421245421,61.554883100702455,38.06113603041099
2.657,0.0,-61.638601804295746,-50.079126382347916
2.657,0.0,-78.41881386224776,-41.19727161871664
2.657,0.0,-35.21081276967121,-21.04798552849129
2.658,0.0,-34.65245399892685,-17.11970097159866
2.658,0.0,-16.389787721544288,-13.435901101021718
2.658,0.0,-6.895676611811641,-8.978692634916765
2.658,0.0,-1.8300054021837262,-5.555522137006813
2.659,0.0,4.87957465967791,0.12475935090426095
2.659,0.0,5.390526580119264,5.168582321291592
2.659,0.0,7.467147219557496,6.326104179011869
2.659,0.0,4.4624676762333095,5.5424973579383705
2.66,0.0,5.52135606978011,4.88763597702954
2.66,0.0,-2.014811293359463,2.963784492340225
2.66,0.0,-0.9321853765906933,-1.8825208834343368
2.661,0.0,-6.880709529029991,-6.7355828303342555
2.661,0.0,-17.189432866098315,-5.498972294336049
2.661,0.0,0.519381490897199,6.812686637314451
2.661,0.0,-44.71729850016725,-27.440246504493512
2.662,0.0,16.654989190868243,-2.0536851862665237
2.662,194.2124542124542,133.37186901457466,90.82303293319382
2.672,0.0,16.712991493997606,-1.94164381302798
2.673,0.0,-44.5969479539214,-34.982519657349286
2.673,0.0,0.712744886847366,-3.9991808831276643
2.673,0.0,-16.915168910027052,-11.010668500123016
2.673,0.0,-6.508763340635825,-3.2873021783170753
2.674,0.0,-0.4631147195935865,-1.7069265774438045
2.674,0.0,-1.4437531742160998,-2.4361772833703306
2.674,0.0,6.178475622475712,3.035854499420448
2.675,0.0,5.152570832937846,8.733159532255014
2.675,0.0,8.168506438706702,9.946656762411052
2.675,0.0,5.92878209217162,8.530754390779576
2.675,0.0,5.217887091753164,6.002531927045609
2.676,0.0,-1.9612444156878497,0.2005240310230008
2.676,0.0,-7.715979705050978,-11.254422368874554
2.676,0.0,-17.938710046997024,-23.923283392826306
2.676,0.0,-37.763604590825814,-30.470515174042188
2.677,0.0,-39.12564952437164,-32.67394882790594
2.677,0.0,-84.68718220757779,-44.99601415111674
2.677,0.0,-69.12642529130184,-48.79149812078971
2.688,193.40659340659337,63.48772073928686,40.70163295284642
2.688,197.43589743589743,83.35049500156532,58.885283987950444
2.688,199.85347985347985,41.160744578636425,45.88767660553927
2.688,195.8241758241758,36.51168022539609,33.81014700103911
2.689,194.2124542124542,17.12589850198421,13.775908385197402
2.689,196.63003663003664,11.454692441796368,2.0468280369281917
2.689,195.8241758241758,6.302046242274827,2.4659642068289496
2.69,193.40659340659337,3.287064446422953,7.322279331946358
2.69,194.2124542124542,0.844220176972236,2.785326644946731
2.69,197.43589743589743,13.65689512433017,-0.29910104553295014
2.69,203.88278388278388,19.292149577673477,12.955582876473843
2.691,193.40659340659337,11.526228402809052,9.217299865098262
2.691,193.40659340659337,33.55072256750632,19.46640711595621
2.691,121.68498168498168,-71.80750625678569,-55.165111491678054
2.691,0.0,-135.01197344609892,-96.50499470597822
2.702,191.7948717948718,-8.749928474344992,4.18687442837896
2.702,147.47252747252745,9.330020514763717,0.23057668889021787
2.702,189.37728937728937,-0.24944931071900456,3.3849630382608398
2.703,193.40659340659337,31.45689951307911,9.722801655160406
2.703,186.15384615384613,8.695875286493038,9.972864581560094
2.703,186.15384615384613,7.054077128826166,8.709239524403277
2.704,178.09523809523807,4.648238800657481,7.09637044939619
2.704,177.28937728937728,-3.771292019600547,6.705092064835283
2.704,171.64835164835165,1.9791711518758026,6.216571420078165
2.704,168.42490842490844,-0.9542955163794389,0.5906171046679931
2.705,167.61904761904762,8.01807971078464,-0.44664181781270107
2.705,173.26007326007326,31.044587599596714,12.352024554597325
2.705,182.93040293040292,39.54913831964439,27.263988807478157
2.705,181.3186813186813,80.52810486537098,46.943342828520436
2.706,178.9010989010989,61.37403526446524,54.581287472924345
2.716,0.0,-61.15577025320523,-34.2602698046324
2.716,0.0,-76.83775612815346,-58.779704673254
2.717,0.0,-35.363610735129754,-34.583587945807956
2.717,0.0,-34.7214840342813,-14.96773115092898
2.717,0.0,-17.185593312238172,-10.754002290500111
2.718,0.0,-7.819616152713994,-14.116872864328776
2.718,0.0,-3.0975812914381144,-0.1998596629424776
2.718,0.0,3.9484402298200507,13.522495999258986
2.718,0.0,4.78436136513986,13.662680182028078
2.719,0.0,7.079759390040515,8.482771095401093
2.719,0.0,6.846023008181737,2.4459883790297288
2.719,0.0,6.32162853707491,-3.2010439158342776
2.719,0.0,5.525076144179671,-4.489725410261125
2.72,0.0,4.194084425177894,-3.557595008689241
2.72,0.0,3.158420410033456,-2.9122901267805834
2.72,0.0,1.9939137534047076,-2.1489897570435748
2.72,0.0,1.101956758766728,-1.7573398540693559
2.721,0.0,0.38771676666360555,-1.5025318990253975
2.721,0.0,-0.09939789521538067,-0.7677927376073749
2.721,0.0,-0.3214477295568836,-0.022466446381593803
2.732,0.0,-0.29404572872795753,0.3174799648304809
2.732,0.0,-0.016366446822356773,0.558074050115631
2.732,0.0,0.5376090392815452,0.9248410364303798
2.733,0.0,1.3334341459623376,1.3619448564081356
2.733,0.0,2.3202144417642154,1.976829819002545
2.733,0.0,3.6051352816904916,2.7339327675767433
2.733,0.0,4.757399732830458,3.2126708448172216
2.734,0.0,6.223929858056493,4.2585242424346195
2.734,0.0,7.124878461665574,6.840063295878685
2.734,0.0,7.703546455904943,9.417950096611255
2.734,0.0,7.966056417112058,11.001165021843672
2.735,0.0,5.459396266087673,10.48072832767518
2.735,0.0,4.444116713783217,5.603753103261311
2.735,0.0,-3.249656091688406,-1.0062557497581823
2.736,0.0,-8.70430547502128,-5.403938802169367
2.736,0.0,-19.026969805923592,-11.836001955112254
2.736,0.0,-38.53383822189512,-20.935876706439434
2.736,0.0,-39.862730387314436,-30.164008741345363
2.737,0.0,-84.95082728732994,-54.251093228356595
2.737,0.0,-69.67893360577996,-66.70122080170226
2.747,192.6007326007326,62.841383488790854,32.214612427197686
2.748,197.43589743589743,82.98825718562134,61.66537963717917
2.748,199.85347985347985,41.12116624134357,37.55681204648026
2.748,199.04761904761904,39.80607675602646,18.248605565142007
2.748,197.43589743589743,19.392694852989955,14.562812731518518
2.749,195.8241758241758,10.68904038656446,19.48820721340469
2.749,195.8241758241758,4.674051627994384,8.200877160926858
2.749,195.8241758241758,3.457368925936091,-3.0688939599476335
2.75,195.8241758241758,1.8844017115930818,-2.532360518834673
2.75,194.2124542124542,2.2561556595598304,1.7471250468502943
2.75,194.2124542124542,11.720839538398248,3.3405873285090326
2.75,195.8241758241758,-0.4891662039675637,-5.771514060774477
2.751,193.40659340659337,33.45962758302206,16.630211860791835
2.751,178.09523809523807,-26.032802632954645,-8.735480421733314
2.751,0.0,-148.54160940319554,-108.0711266807359
2.762,155.5311355311355,-42.62773617156385,-26.098984244034497
2.762,214.35897435897436,51.87288677370509,38.65498328306346
2.762,195.018315018315,11.285237950737322,9.200565003223069
2.762,196.63003663003664,16.41216204514074,16.74525182276529
2.763,190.989010989011,11.961273167014053,1.9601817800171408
2.763,184.54212454212455,-1.3397192915623364,0.568308394235817
2.763,181.3186813186813,2.0425653640843016,3.1212426317171955
2.764,176.48351648351647,-5.789719291856167,-5.627023919003048
2.764,172.45421245421244,-1.7401406394037942,-11.058630108175942
2.764,173.26007326007326,4.275867081546841,-0.16534425420644477
2.764,170.84249084249083,8.866039618459025,16.4664451573563
2.765,166.8131868131868,25.728743168800374,28.557911470142066
2.765,182.1245421245421,37.86622400761122,35.51080883185508
2.765,181.3186813186813,81.63679406631174,48.18681971471791
2.765,178.9010989010989,61.595958975896,47.20860923439719
2.776,0.0,-60.467819275607944,-33.4448256207665
2.776,0.0,-76.21388721807425,-49.39101935612318
2.776,0.0,-34.94017791293125,-38.761351969671566
2.777,0.0,-34.21972236029499,-32.622286176973965
2.777,0.0,-16.909793769327614,-16.439725606011542
2.777,0.0,-7.556111793348368,-6.113340405710355
2.777,0.0,-2.9451867388434074,-1.3859575210769228
2.778,0.0,4.039005266957513,0.17059736568453143
2.778,0.0,4.834486754137096,2.0819731869518407
2.778,0.0,7.0812206371244635,3.4862338017937513
2.779,0.0,6.833378129460577,4.525222539002013
2.779,0.0,6.289234388099635,5.117297094497996
2.779,0.0,5.488920423502592,4.649706802173959
2.779,0.0,4.157000751815182,3.8370919766477973
2.78,0.0,3.1235329540052916,3.4083305423881045
2.78,0.0,1.9648823732288043,3.1039934791971144
2.78,0.0,1.0779031708038773,2.7218173133549532
2.78,0.0,0.3696517979562257,2.4889612696614463
2.781,0.0,-0.11273842584618166,2.534846671292928
2.781,0.0,-0.3310837491904187,2.689288001836884
2.792,0.0,-0.3010601322954414,2.8628154638945102
2.792,0.0,-0.02222544017268291,2.896573643628407
2.792,0.0,0.5317145322927149,2.480598754170965
2.792,0.0,1.327056021577092,1.906446148912539
2.793,0.0,2.311589212933698,1.6643229324467956
2.793,0.0,3.5958291373038267,1.132323394887101
2.793,0.0,4.7457696357240176,-0.032594456509274505
2.793,0.0,6.211921927057574,-1.3295815717669721
2.794,0.0,7.116181770326087,-3.432215474039752
2.794,0.0,7.692984277415493,-3.4050799622872647
2.794,0.0,7.972821107443835,1.988199439361791
2.794,0.0,5.463833878097508,8.51455022790809
2.795,0.0,4.477547987269108,14.155896031299243
2.795,0.0,-3.195494080695907,13.716065265834342
2.795,0.0,-8.650168430904426,-0.4162780239812406
2.796,0.0,-18.86649564271402,-19.64732012933803
2.796,0.0,-38.47481345965419,-32.567894276640544
2.796,0.0,-39.58631729665694,-39.98695715998718
2.796,0.0,-84.8174724761058,-54.020624011256956
2.797,0.0,-69.51294711953533,-57.633519671844525
2.807,194.2124542124542,64.86576751160833,34.10540325782133
2.807,199.04761904761904,84.2425046570361,53.10609318092202
2.808,197.43589743589743,39.33243655901584,39.368992571477975
2.808,199.04761904761904,38.62584081624611,33.70587984335936
2.808,196.63003663003664,19.00875018138832,16.34029347084056
2.808,199.04761904761904,11.234287403411138,6.392454188502722
2.809,197.43589743589743,6.449236964707499,3.483752602393988
2.809,194.2124542124542,-3.5026529940739835,3.606579654901175
2.809,194.2124542124542,-0.6247815749206573,1.0697186170859512
2.81,199.04761904761904,0.8346400897721331,-0.963562103540084
2.81,199.04761904761904,8.655265822428294,-2.7216839810819984
2.81,196.63003663003664,2.6021657839817056,-4.289403965661212
2.81,194.2124542124542,7.904283408332571,7.362412291478206
2.811,193.40659340659337,9.710667366924262,13.508932028191925
2.811,102.34432234432234,-90.19678235945416,-52.50712573246849
2.821,68.4981684981685,-103.20578154203076,-82.46843556168228
2.822,226.44688644688645,25.91599514970445,8.59310281698481
2.822,215.16483516483518,41.6927403951357,26.371187176047616
2.822,207.1062271062271,8.949344447305794,19.142409463643858
2.822,199.04761904761904,14.333997001984372,13.305842191468063
2.823,193.40659340659337,0.9440146322607252,4.925587998173103
2.823,188.57142857142856,0.20764147813629652,3.3850117535192465
2.823,185.34798534798534,-1.5191243655006252,4.569522542323791
2.824,179.7069597069597,-0.5987751949132187,7.124827235685272
2.824,178.09523809523807,4.116131577467843,6.561180075812035
2.824,174.06593406593407,9.725918551812489,7.527560781169334
2.824,171.64835164835165,25.98890374303096,11.141492325735989
2.825,174.87179487179486,30.18036286163351,16.13577454679397
2.825,180.5128205128205,78.33405977517165,39.13898407569496
2.825,182.93040293040292,65.17378682756038,52.01870006914173
2.836,0.0,-60.7974936974717,-38.03699164683297
2.836,0.0,-76.73261474650573,-58.6332866182599
2.836,0.0,-34.503686944742846,-29.298567286405095
2.836,0.0,-34.31013592894542,-8.02206562236696
2.837,0.0,-16.523388375254832,-7.000010248271942
2.837,0.0,-7.340665611035945,-16.353948042576274
2.837,0.0,-2.6997845089053527,-8.537945685428964
2.838,0.0,4.29008166897999,1.3534139149067532
2.838,0.0,4.990620237347429,3.513428006792647
2.838,0.0,7.244564909959083,3.3433611014671087
2.838,0.0,6.926008602312474,2.5374316893991753
2.839,0.0,6.36117126294635,1.479846347354886
2.839,0.0,5.528540883276541,2.1788082866152
2.839,0.0,4.171219299476022,3.5131401919812806
2.839,0.0,3.1250913280035633,4.445630301446728
2.84,0.0,1.9513188174037626,4.676822788223521
2.84,0.0,1.0596355295146294,3.4368100107827746
2.84,0.0,0.34703057740505827,1.5954559743304377
2.84,0.0,-0.13553922861291245,-0.08469312868178794
2.841,0.0,-0.35159815944273964,-0.9880160537694362
2.851,0.0,-0.31763999014825894,-0.2036285096639804
2.852,0.0,-0.032674565931541055,1.4676800658477458
2.852,0.0,0.5297039056653416,3.292478626955457
2.852,0.0,1.334405970599215,4.7821593929128685
2.852,0.0,2.3319042612611636,5.188015561537297
2.853,0.0,3.629737919624187,4.930835401101094
2.853,0.0,4.794225125244865,4.26596780445403
2.853,0.0,6.279973625065903,3.683166343870816
2.853,0.0,7.192214108419316,3.936390623348902
2.854,0.0,7.7917258156159575,4.046578706474623
2.854,0.0,8.065492581067348,3.4006289847614934
2.854,0.0,5.557403310910156,1.340400436131213
2.854,0.0,4.563493618182596,-3.7176821809286613
2.855,0.0,-3.19759630955606,-9.523552933730501
2.855,0.0,-8.62457910294674,-12.822776101115029
2.855,0.0,-19.084891451953677,-17.1618210616478
2.856,0.0,-38.67215197729679,-22.61760750727593
2.856,0.0,-40.03620217510791,-27.78520729033108
2.856,0.0,-85.63790386413802,-47.91446484662994
2.856,0.0,-69.94446504792081,-58.099433354718784
2.867,193.40659340659337,62.16818036346328,38.49551006476038
2.867,197.43589743589743,82.36715680138434,64.03521848985181
2.867,202.27106227106225,41.592135667377974,36.75656352365565
2.868,200.65934065934067,39.66766259129268,13.31420577551369
2.868,199.04761904761904,19.495227132496403,11.587210343263761
2.868,201.46520146520143,12.503387755720862,19.58805933637863
2.868,199.04761904761904,7.8273359949926835,8.122388913522164
2.869,194.2124542124542,-4.250293565954234,-3.309958841977442
2.869,193.40659340659337,-0.10746901924608565,1.549698362679782
2.869,195.8241758241758,0.22687599741157882,9.881693779018661
2.87,196.63003663003664,6.6146655776899,7.576799696366145
2.87,194.2124542124542,11.659033170348646,5.515465465549951
2.87,195.8241758241758,5.166746475541398,17.50987575233907
2.87,197.43589743589743,35.6819267565417,28.877117644759345
2.871,160.36630036630038,-37.16787969755609,-38.40400124845773
2.881,0.0,-150.46195742773045,-104.28012014851394
2.881,141.8315018315018,-54.61540322067468,-50.7081551604445
2.882,199.04761904761904,36.45716718039352,22.81320705062395
2.882,211.1355311355311,23.44838173923727,24.79318489475773
2.882,206.3003663003663,25.433380259833754,8.330565125369809
2.882,196.63003663003664,11.912382602104588,12.702045026594808
2.883,194.2124542124542,6.926299560030661,15.313946352231074
2.883,190.1831501831502,5.476327479106099,2.9543921814709284
2.883,182.93040293040292,2.3036001119385974,-6.510220637633886
2.884,181.3186813186813,5.00550947652393,3.551779111668789
2.884,178.9010989010989,13.975379011355693,18.490120251799443
2.884,177.28937728937728,26.778095002507634,20.342107844135946
2.884,170.03663003663002,24.880655792857628,18.52669188156696
2.885,186.15384615384613,79.2403679668308,40.0702882884448
2.885,186.15384615384613,67.33600124711818,47.61802183149684
2.895,0.0,-63.60459734993486,-40.24366001535027
2.896,0.0,-78.26640526450585,-52.659781722822956
2.896,0.0,-35.694673175287704,-37.255326332483996
2.896,0.0,-35.44521896976812,-27.902446548627573
2.896,0.0,-16.957895717645616,-7.433814811820252
2.897,0.0,-7.805185361094001,4.449291584007505
2.897,0.0,-2.794220090942652,6.5045221640590185
2.897,0.0,4.270444917453041,3.3312365443346277
2.897,0.0,5.068329615411658,0.23476293907141965
2.898,0.0,7.397747680005878,-2.3340017633920924
2.898,0.0,7.072422390825391,-2.1427718392336925
2.898,0.0,6.529103939640296,-0.6262707124080933
2.899,0.0,5.669174377732362,0.10179139695848004
2.899,0.0,4.294527183556268,0.8100069568906787
2.899,0.0,3.2223317003524437,1.728223732571016
2.899,0.0,2.0211514752458237,2.6284811297848005
2.9,0.0,1.1081831952350252,3.7023641777426426
2.9,0.0,0.3738565453916003,4.427472386965914
2.9,0.0,-0.12393187369364145,4.1973752270294895
2.9,0.0,-0.3522906660572964,3.549463123546003
2.911,0.0,-0.3270933812778376,2.861838222114133
2.911,0.0,-0.04611480487217423,2.479766579980631
2.911,0.0,0.5136939557503185,2.9351584877583097
2.912,0.0,1.32032641543337,3.798681776533417
2.912,0.0,2.322689719098918,4.6361895215543045
2.912,0.0,3.624628209468796,5.250835532789597
2.913,0.0,4.80512886632164,5.415625882499679
2.913,0.0,6.293914540862926,5.046207089950741
2.913,0.0,7.231955693155789,3.7485340341850675
2.913,0.0,7.842428946568736,2.395476571966982
2.914,0.0,8.124911705777729,1.9335085966866825
2.914,0.0,5.673132236701204,1.0115513129818945
2.914,0.0,4.610860310268843,-0.5740839906200543
2.914,0.0,-3.015709095261637,-4.954139291002737
2.915,0.0,-8.590715679040645,-15.640254301993581
2.915,0.0,-18.988083508653556,-27.638432459430035
2.915,0.0,-38.49889738927944,-32.68334284635823
2.916,0.0,-40.45210184620945,-33.60841279513627
2.916,0.0,-85.06550978361561,-45.57280191725409
2.916,0.0,-71.21983147284097,-49.4947197352903
2.927,190.989010989011,60.37788720301272,38.44381774063603
2.927,199.04761904761904,82.5846835799473,58.585362641977035
2.927,197.43589743589743,36.11101204053449,42.771054192650716
2.927,200.65934065934067,39.342220534098814,41.638488078240435
2.928,211.1355311355311,29.547110446932113,21.490744209530135
2.928,202.27106227106225,13.491985716505035,8.23762576318507
2.928,196.63003663003664,3.7806394294563823,4.045531650040379
2.928,194.2124542124542,-4.213357507533527,3.1787915900084487
2.929,194.2124542124542,0.08944115924600382,-1.7891038153044896
2.929,195.8241758241758,1.5038683145801244,-3.933836367811004
2.929,194.2124542124542,3.946908503635699,-0.8762420765041603
2.93,199.04761904761904,19.725931828943217,8.433647055769079
2.93,195.8241758241758,7.94681750882824,21.586157924695403
2.93,194.2124542124542,31.317762003903987,28.956283850322624
2.93,191.7948717948718,9.220043214715172,0.8903254764917179
2.941,0.0,-164.71649388847518,-140.96555823334097
2.941,27.399267399267398,-142.79169811450953,-104.20936302685035
2.941,226.44688644688645,45.84395996752543,50.94762214604934
2.942,220.8058608058608,51.414680034970615,42.96961335682408
2.942,207.9120879120879,20.39445080972149,17.26905883063042
2.942,215.16483516483518,33.18521332603033,9.515565037905073
2.942,195.8241758241758,9.32556987849107,0.9520181244465517
2.943,188.57142857142856,1.2759146849781668,1.3119999825175879
2.943,189.37728937728937,7.833086520161555,6.457562483069779
2.943,181.3186813186813,4.148893154492244,5.885079521509959
2.944,183.73626373626374,15.026560455752877,6.459836936948664
2.944,177.28937728937728,27.907555910719864,8.55423716989438
2.944,171.64835164835165,22.052069320795702,13.095786769045757
2.944,179.7069597069597,74.51789788025135,41.3257757822949
2.945,189.37728937728937,67.31143279709158,59.76389260564858
2.955,0.0,-62.565274835580354,-36.19869045599777
2.955,0.0,-79.60401027180733,-61.12778818043621
2.956,0.0,-35.561603161150884,-33.64305452238055
2.956,0.0,-35.54892696806937,-14.151331410604632
2.956,0.0,-17.100691609904075,-9.067188391017691
2.956,0.0,-7.58316010018839,-12.62680615520086
2.957,0.0,-2.8252803312601955,1.1005835870670404
2.957,0.0,4.44753762528234,14.86231809773427
2.957,0.0,5.146918713464993,15.62342343470923
2.958,0.0,7.495084614384048,11.341828015485891
2.958,0.0,7.164797666250841,6.135828049921779
2.958,0.0,6.582630623610733,1.2249728451310242
2.958,0.0,5.728244647748002,0.44633422523418664
2.959,0.0,4.324832762079628,1.6469421000675724
2.959,0.0,3.2482621328534127,2.3874024150463686
2.959,0.0,2.0357938056294858,2.9010611709080196
2.959,0.0,1.1154446457133844,2.528386103914453
2.96,0.0,0.37807948529857727,1.678924330064114
2.96,0.0,-0.12446764183400494,1.1294885694863026
2.96,0.0,-0.3544250187503448,0.4867792282110714
2.971,0.0,-0.33195346303305684,-0.5278212235656513
2.971,0.0,-0.05413936672443431,-1.5829869803203651
2.971,0.0,0.5015541202396502,-2.472286556039304
2.972,0.0,1.3025737575413983,-3.094510502055209
2.972,0.0,2.2958887242187975,-3.199633272391987
2.972,0.0,3.5905901383772645,-2.9021876302602685
2.972,0.0,4.7562037391282805,-2.6444439326992226
2.973,0.0,6.236856611667852,-1.7117746858444822
2.973,0.0,7.162568770413441,0.6820976536407791
2.973,0.0,7.75943095383601,3.200531071482252
2.973,0.0,8.05741403435548,4.996808583078353
2.974,0.0,5.578638183598429,5.096434403721585
2.974,0.0,4.586922993254551,1.453958109006443
2.974,0.0,-3.0504924114332965,-3.5389287077717557
2.975,0.0,-8.544258771486998,-6.197110201970983
2.975,0.0,-18.77844076161538,-10.822222176400777
2.975,0.0,-38.4028302716078,-18.185984395733644
2.975,0.0,-39.74708951646643,-25.833894054394595
2.976,0.0,-84.8429940254906,-48.625513585960135
2.976,0.0,-70.11910429039837,-60.56754812265788
2.986,193.40659340659337,63.68481218761518,39.65652010394854
2.987,199.04761904761904,83.24579776507366,68.05545153219444
2.987,195.018315018315,35.84598673365632,38.38443882826341
2.987,198.24175824175825,36.48549642993892,21.068894614837603
2.987,199.04761904761904,20.247169703146458,16.268450345114037
2.988,198.24175824175825,8.296687935797674,20.8482465385074
2.988,197.43589743589743,6.7445938045983596,6.680338963976171
2.988,198.24175824175825,-1.544533873606099,-6.913117518650951
2.989,195.8241758241758,2.5842755874370837,-1.9121772221518147
2.989,203.07692307692307,7.996751610902187,7.15947103355432
2.989,197.43589743589743,6.409334132819296,2.3380569577325803
2.989,195.8241758241758,17.269121229303472,1.1419383731777977
2.99,198.24175824175825,8.442465491143153,16.170933940320364
2.99,193.40659340659337,32.64904485604299,26.00315174882307
2.99,195.018315018315,10.40580640700541,5.501536276777358
3.001,0.0,-161.86277032202912,-130.2116985828498
3.001,25.78754578754579,-145.97596735947388,-112.87654701338624
3.001,217.58241758241758,39.112234238084866,27.407330702585842
3.001,227.25274725274724,57.57269315129529,29.938383466295083
3.002,212.74725274725276,24.457429818075596,21.97598943235087
3.002,206.3003663003663,24.585384177968194,24.377374855718656
3.002,200.65934065934067,10.16661161574756,18.256149271505773
3.003,195.018315018315,5.361180542992612,3.6134596457933545
3.003,187.76556776556774,-0.9970865986956072,-7.483971405232365
3.003,187.76556776556774,2.7455603943581526,-2.1597029218067947
3.003,182.93040293040292,4.731309245901665,8.174311100962875
3.004,178.9010989010989,9.481125982929724,4.7478259709347395
3.004,173.26007326007326,21.732282553154377,9.511115704162602
3.004,173.26007326007326,24.740823155150935,30.910542854393427
3.004,191.7948717948718,84.07950033628686,69.58449035383765
3.005,190.989010989011,70.13299791206208,45.21750170534433
3.015,0.0,-64.16874988733183,-55.699850028196046
3.015,0.0,-79.18439434737309,-45.07078603018347
3.016,0.0,-35.87862849777227,-20.472270975437898
3.016,0.0,-35.510961881140574,-13.56325513853254
3.016,0.0,-16.698046212226565,-7.824295914498441
3.016,0.0,-7.424582117073509,-4.734645812629874
3.017,0.0,-2.2266260348789046,-4.193582363978575
3.017,0.0,4.68747214848101,-0.43948326618809846
3.017,0.0,5.3511459991160955,3.0531872561908453
3.018,0.0,7.57190208409699,3.246529453515585
3.018,0.0,5.938683654368972,1.9451585581827902
3.018,0.0,6.137906601330538,0.02241755820915072
3.018,0.0,2.085644276969904,-1.9762396881065691
3.019,0.0,1.8498054053591968,-3.2694273774021916
3.019,0.0,-1.544472502385816,-3.731685856603894
3.019,0.0,-7.0628727189971325,-1.8466631784403604
3.019,0.0,0.8412055453305431,1.3680163933926566
3.02,0.0,-20.92147419070254,-7.050586921555475
3.02,0.0,7.8816949848802675,-10.011206447023255
3.03,91.86813186813187,63.03759149939,24.500565958045332
3.031,0.0,7.927614321024368,-4.577042643505691
3.031,0.0,-20.824295711508412,-4.299783563937672
3.031,0.0,0.9938205169479293,2.8396331942994264
3.031,0.0,-6.844514898280838,2.5140591610336624
3.032,0.0,-1.2509936586095236,4.153812878167005
3.032,0.0,2.214570746542451,3.615616046280694
3.032,0.0,2.5382012098408233,2.0175887168539135
3.033,0.0,6.633963108504064,0.5247823837604119
3.033,0.0,6.4841569105850505,0.7488506623976424
3.033,0.0,8.090647657567946,4.881538032403773
3.033,0.0,5.74391367661005,9.66291865841565
3.034,0.0,4.959074038440936,13.562145447385417
3.034,0.0,-2.470254804962287,12.019361674593986
3.034,0.0,-7.947299679007096,-1.6006832008354948
3.034,0.0,-18.180150914443818,-19.502080629576035
3.035,0.0,-37.82423300372086,-31.14444809093759
3.035,0.0,-38.94649011738981,-37.29853548219329
3.035,0.0,-84.64869701166458,-50.88935415959463
3.036,0.0,-68.71095086780623,-53.67292411748149
3.046,193.40659340659337,63.439803733463414,36.005377320888044
3.046,193.40659340659337,79.45755334447698,51.762800452104806
3.047,193.40659340659337,34.38715806365379,38.44073775614408
3.047,195.018315018315,34.94321883444652,35.017345885602445
3.047,196.63003663003664,19.244622243491907,19.598953437345315
3.047,199.04761904761904,11.152531334772732,10.743106449774157
3.048,194.2124542124542,6.211576831423752,6.3678517760261615
3.048,195.018315018315,-0.8569808691710179,4.085397243273201
3.048,193.40659340659337,5.136586258629492,-1.32861722898045
3.048,193.40659340659337,4.35424287200339,-3.33161695554111
3.049,193.40659340659337,12.35895416410165,2.1358935029307586
3.049,193.40659340659337,23.718321662364218,13.23676983241738
3.049,194.2124542124542,18.513912485054252,22.64211627498721
3.05,193.40659340659337,51.00754305844714,30.794323108797233
3.05,192.6007326007326,16.099888120028897,-5.576708675401203
3.06,0.0,-124.12079893396148,-104.68996113950634
3.06,0.0,-178.10040940331368,-133.32589486689207
3.061,36.26373626373627,-92.66432008612243,-71.0359936488412
3.061,219.19413919413918,41.164899983181904,30.434034993630668
3.061,224.8351648351648,72.91376405576283,67.12981839491367
3.062,213.55311355311358,35.83922865857329,41.501726049157234
3.062,204.68864468864467,30.36111307590302,12.410200099256203
3.062,193.40659340659337,15.139781958963713,11.165323373778705
3.062,193.40659340659337,13.114100645698167,22.961148982275105
3.063,186.15384615384613,13.542861408797167,20.443589151950626
3.063,186.15384615384613,16.298445606861335,18.2167585149353
3.063,184.54212454212455,35.39083976679148,21.31441576826442
3.063,180.5128205128205,30.180253007731544,24.04647141615074
3.064,171.64835164835165,64.61036819566897,36.3148484452491
3.064,172.45421245421244,51.23749827428205,41.08779551813329
3.074,0.0,-64.64566452475059,-39.31702760632356
3.075,0.0,-77.99429106835089,-59.11451481468828
3.075,0.0,-36.1460123517367,-33.33529953644174
3.075,0.0,-34.21450284597284,-12.568267939501544
3.076,0.0,-16.211135481794102,-11.014055976882021
3.076,0.0,-6.2909130872781205,-18.29764962061997
3.076,0.0,-1.4820808461311543,-9.734535376886162
3.076,0.0,5.837224247826153,0.6416431464668242
3.077,0.0,6.1833662008668995,3.6071714114577227
3.077,0.0,8.107806366447548,3.962698359736511
3.077,0.0,7.5331577985458775,3.6715237188848007
3.077,0.0,4.363301196364981,1.9832725334143093
3.078,0.0,4.955726607823392,-1.1195224272280007
3.078,0.0,-2.6741083154384,-3.849226581169204
3.078,0.0,-1.5161611857524453,-3.2289012285471568
3.079,0.0,-7.270725839026079,-2.576868953711904
3.079,0.0,-16.658515738257115,-4.791890539232638
3.079,0.0,-0.20850952738502526,2.984606326904558
3.079,0.0,-41.95470221576615,-19.80646031599409
3.08,0.0,14.992087183217576,10.151184680670909
3.09,179.7069597069597,123.10534849001877,92.46787497089109
3.09,0.0,15.31015261956998,4.727517218719125
3.091,0.0,-41.29467519265466,-19.226993967395373
3.091,0.0,0.7674866258717028,11.457628167290583
3.091,0.0,-15.410457927573274,-3.455256644417318
3.091,0.0,-5.639553769843731,-6.58637563961537
3.092,0.0,0.08527098959835921,-5.371977411980761
3.092,0.0,-0.6827276503203752,-4.144184504038952
3.092,0.0,6.475966545060016,-2.385204166215484
3.093,0.0,5.58759874227772,-0.4985332634150918
3.093,0.0,8.416214781646538,1.5569765106137345
3.093,0.0,6.163277658041919,1.9993100215056783
3.093,0.0,5.37147920538419,-1.9497336953954918
3.094,0.0,-1.8513506808835536,-7.379543758672596
3.094,0.0,-7.791421022102436,-10.494621867268924
3.094,0.0,-18.10668928977662,-14.881098828152655
3.094,0.0,-38.21426748905298,-20.351969483196978
3.095,0.0,-40.0287140254808,-25.57196033923026
3.095,0.0,-85.59028932637571,-46.278777159071446
3.095,0.0,-71.36817531810927,-57.235232061594104
3.106,195.018315018315,63.453940838619374,41.65563595405722
3.106,202.27106227106225,84.70080143744664,67.88550553532264
3.106,198.24175824175825,36.140676866615536,33.35927506382298
3.107,199.04761904761904,35.83294409069817,13.022373749580577
3.107,201.46520146520143,19.23684213963672,7.418646932585762
3.107,195.8241758241758,5.567483244438328,13.640343015992443
3.107,195.8241758241758,2.8018864741098213,3.113895302303177
3.108,199.04761904761904,0.7457101755536257,-5.867800167251315
3.108,201.46520146520143,10.113191996827709,3.9294796724848644
3.108,198.24175824175825,6.59341011516414,16.65614313474916
3.108,193.40659340659337,12.217382587658403,11.696880197064651
3.109,196.63003663003664,25.847575975390154,10.451612789770495
3.109,194.2124542124542,20.538953726189778,27.734121195097426
3.109,197.43589743589743,58.12942896182126,49.868802513776416
3.109,195.8241758241758,22.11357652889963,4.747521079428779
3.12,0.0,-116.53693660055337,-102.34200772505183
3.12,0.0,-173.7436578291125,-132.0716795015761
3.121,0.0,-121.37944999945528,-98.75623649985144
3.121,185.34798534798534,14.80733712095428,0.03373168650736602
3.121,230.47619047619048,82.0025010064045,69.13665193353786
3.121,215.16483516483518,44.91200760773028,58.40701473509278
3.122,206.3003663003663,31.161673584259457,33.90705577091982
3.122,194.2124542124542,18.719375093878284,15.835459468469423
3.122,194.2124542124542,8.309503936618341,6.134122182204744
3.122,191.7948717948718,14.155821825751323,7.497932982359055
3.123,187.76556776556774,9.720541021191817,13.577557425833248
3.123,185.34798534798534,15.450908603071817,6.987326882711022
3.123,178.9010989010989,29.434670397920634,7.372910550273327
3.123,173.26007326007326,19.21126016849341,18.353493792061492
3.124,168.42490842490844,64.81209155760769,47.783719021887364
3.124,193.40659340659337,66.80881902530614,41.99845418212011
3.135,0.0,-61.021842768995384,-51.522644370697634
3.135,0.0,-81.60173184452273,-45.53706779805379
3.135,0.0,-34.80283693163112,-21.932335651904967
3.135,0.0,-35.228673069127495,-18.19793523045148
3.136,0.0,-16.28697793120859,-13.231623399268118
3.136,0.0,-6.357985481371923,-8.571235516562606
3.136,0.0,-1.600737200390764,-5.384142489937158
3.136,0.0,5.555715148831915,0.49692771771366995
3.137,0.0,5.771204141553143,5.770529900470008
3.137,0.0,7.89212930956452,7.008348734162773
3.137,0.0,4.903704007412566,6.215633345189641
3.138,0.0,5.442583848610183,5.409293354474428
3.138,0.0,-1.5755319042408509,3.2437033128266997
3.138,0.0,-1.5850237950054762,-1.9795081402951373
3.138,0.0,-6.990921819684478,-7.128755025087173
3.139,0.0,-17.539121456980237,-5.738048222582968
3.139,0.0,-1.993418960571193,4.756769545887414
3.139,0.0,-42.562867005093,-24.87970068515193
3.139,0.0,9.79763601281955,-8.661733158234675
3.15,184.54212454212455,128.89380751181622,86.26378108515237
3.15,25.78754578754579,33.551476211060375,14.546605478671426
3.15,0.0,-40.19730858103877,-30.137555310449443
3.151,0.0,-5.316503811423345,-7.706986878892163
3.151,0.0,-16.10350913782211,-13.945096362324264
3.151,0.0,-8.62022584327475,-3.062509677195527
3.152,0.0,-1.5993689676344633,-2.3267231290312558
3.152,0.0,-1.7984975065040052,-4.137211102669415
3.152,0.0,5.186259270321152,2.1092539499611616
3.152,0.0,5.1664279662280315,8.752404114964975
3.153,0.0,7.874163819491761,10.107314493245234
3.153,0.0,6.068455905941417,8.645411260572871
3.153,0.0,5.439023012482799,6.183193125992027
3.153,0.0,-1.5885316279195587,0.503825746275062
3.154,0.0,-7.163618514182814,-10.681212474619686
3.154,0.0,-17.313662929832233,-23.013592869028408
3.154,0.0,-36.90449114935344,-29.324355470533067
3.154,0.0,-38.41407435764268,-31.54472432538121
3.155,0.0,-83.58104507030575,-43.90093332347217
3.155,0.0,-68.5711249946877,-48.66075695775546
3.166,190.989010989011,61.993349246283486,38.14351758561021
3.166,193.40659340659337,79.60472571681343,53.75195365308302
3.166,193.40659340659337,34.69489546516923,38.172390534225514
3.166,193.40659340659337,33.91282311565003,31.10484822776814
3.167,193.40659340659337,15.581498862411603,13.163227914401228
3.167,193.40659340659337,6.344290127692865,2.8431555409346005
3.167,195.8241758241758,7.547008485639335,-0.20818815297092097
3.167,197.43589743589743,2.4156917178307076,0.5951641432018159
3.168,193.40659340659337,6.018729435014706,-1.6009447773453795
3.168,193.40659340659337,6.358620346632076,0.4624654903468439
3.168,193.40659340659337,14.70035739602618,12.23387144030778
3.168,192.6007326007326,28.168971249039412,29.107083777279996
3.169,193.40659340659337,22.057499359222895,37.532822551878134
3.169,190.989010989011,57.85127068434788,46.73738749703824
3.169,193.40659340659337,25.46112011022427,10.985651422603707
3.18,0.0,-114.29436830641592,-90.26258834554655
3.18,0.0,-161.43548834993632,-119.78740197317138
3.18,0.0,-124.39373752307293,-112.54537584697525
3.181,139.41391941391942,-15.7146270537474,-23.311190656243504
3.181,233.69963369963367,82.29789219812275,68.466860639569
3.181,210.3296703296703,50.304493245830734,52.64510341879402
3.181,193.40659340659337,19.371803293631366,8.886886204394582
3.182,199.85347985347985,28.229795953923457,17.772555372270777
3.182,201.46520146520143,16.94017900090535,32.41479648774917
3.182,187.76556776556774,11.890062993570869,18.376145370939724
3.182,191.7948717948718,12.819508384958606,4.867676508423796
3.183,185.34798534798534,16.291392586388007,11.505074096649286
3.183,182.1245421245421,30.811162092243883,25.92064470835404
3.183,178.9010989010989,24.821929753132373,27.197987848846743
3.184,170.03663003663002,64.61246823857194,34.49931240122589
3.184,188.57142857142856,61.91889725606353,29.67662769011043
3.194,0.0,-62.383984362062336,-51.9954630254107
3.195,0.0,-81.45489318992342,-50.91554268633846
3.195,0.0,-35.21902473901089,-35.33683542817858
3.195,0.0,-34.91053102165408,-29.876188577687337
3.195,0.0,-15.879201806428433,-19.239143225417823
3.196,0.0,-5.694835738186825,-2.587590904589743
3.196,0.0,-0.8564507738442586,10.917244064791959
3.196,0.0,6.460313724714393,14.43189609840621
3.197,0.0,6.398317145726658,12.059343440118106
3.197,0.0,8.305125589535042,7.497237233505676
3.197,0.0,5.081826418822947,1.569313640788957
3.197,0.0,3.8572453871208197,-4.422384569628738
3.198,0.0,-2.286453728293277,-8.657749160814257
3.198,0.0,-6.644383079146003,-7.301378430664243
3.198,0.0,-10.580706542625105,-6.6259486196013535
3.198,0.0,-24.57882053504774,-12.585703173275338
3.199,0.0,-14.570997000180316,-15.310980124344926
3.199,0.0,-44.07777844108728,-26.943160945843303
3.199,0.0,-19.406862091350334,-30.802157217711848
3.21,189.37728937728937,143.10146017408724,102.31098214655557
3.21,153.11355311355314,121.4274108053987,97.49800726504182
3.21,0.0,-30.44124370682021,-20.518967702658713
3.21,0.0,-34.96084836181966,-28.121608725136337
3.211,0.0,-16.98836622238005,-27.746841053608204
3.211,0.0,-21.459000530831837,-11.477296693326338
3.211,0.0,-8.322362252637465,0.9952295745829631
3.212,0.0,-5.371855373631689,5.381258241724119
3.212,0.0,0.18059858563758813,7.3643332698121355
3.212,0.0,4.523949560441805,6.513724272045012
3.212,0.0,6.245720131994699,6.341777068451577
3.213,0.0,6.26897086161145,5.554568981249673
3.213,0.0,5.796411872220516,2.221911311375263
3.213,0.0,-0.955949845162869,-1.9400773812753767
3.213,0.0,-6.248540898101498,-4.424243130653328
3.214,0.0,-16.532060637815697,-9.527128625151908
3.214,0.0,-36.013483338232355,-18.20487336628841
3.214,0.0,-37.90680997354127,-27.7734318524097
3.214,0.0,-82.66850341005828,-52.476421703219856
3.215,0.0,-68.66169158051933,-65.88006663114788
3.225,189.37728937728937,61.37894727212295,30.560110051037153
3.226,195.018315018315,80.68269156807821,59.49324123695396
3.226,193.40659340659337,35.49562675009646,32.79101552381283
3.226,194.2124542124542,34.15337506294765,14.196160359652835
3.226,194.2124542124542,16.708786544154705,10.935890931863893
3.227,194.2124542124542,6.725677186728646,16.780823301933236
3.227,193.40659340659337,4.833802949115544,3.9731713472223644
3.227,196.63003663003664,1.1127160031454935,-7.177915759374582
3.227,195.8241758241758,7.78954375983945,3.054283074950362
3.228,195.018315018315,6.365914981390631,17.26125972053336
3.228,194.2124542124542,15.372378448954716,13.380062837392188
3.228,193.40659340659337,25.18575757960604,12.395282339750466
3.229,193.40659340659337,22.02422784714188,31.538388368518017
3.229,193.40659340659337,56.294186638692274,50.55716762953047
3.229,193.40659340659337,20.557939027800504,6.189427661090239
3.24,0.0,-110.59695703498133,-93.63521865194326
3.24,0.0,-179.87650819379246,-137.87143088552472
3.24,0.0,-106.10774664630449,-85.77466291521459
3.24,208.71794871794867,23.26735288426107,7.983132314182797
3.241,166.00732600732601,38.10505497335532,25.326551683036477
3.241,216.77655677655676,32.51289752219746,34.74960637145258
3.241,207.1062271062271,47.37854583355926,27.168699247057084
3.241,202.27106227106225,22.07089546390937,21.17356325591982
3.242,201.46520146520143,25.078709796215897,20.24737115150507
3.242,193.40659340659337,20.103926963593793,23.22604323833502
3.242,190.1831501831502,19.396105654631498,28.776947604834124
3.243,187.76556776556774,35.61680774901421,30.828543274680417
3.243,182.1245421245421,30.562172483921024,29.513319403925866
3.243,182.1245421245421,70.28474738802511,36.429708701870034
3.243,171.64835164835165,49.62262887985044,35.36794961648099
3.254,0.0,-68.5652372294141,-39.722845087645624
3.254,0.0,-78.91943343853498,-49.72547541594653
3.254,0.0,-37.88456096125482,-41.1390776925755
3.255,0.0,-34.8161754156012,-35.28715936642117
3.255,0.0,-16.21979905639786,-20.798295646923325
3.255,0.0,-6.029841517993624,-10.742990914038407
3.255,0.0,-0.4409780244020318,-3.460651264056394
3.256,0.0,6.773048250435121,1.5575465917181228
3.256,0.0,7.642035414382637,5.716898077810763
3.256,0.0,9.05229792106547,8.687344928823164
3.257,0.0,8.2258632095123,10.254512252141266
3.257,0.0,4.627344337235678,10.326834533464982
3.257,0.0,2.642817607954587,10.295041740394122
3.257,0.0,-3.898117066785761,6.530116210201922
3.258,0.0,-9.12353701784179,-5.321178266830283
3.258,0.0,-12.866443750294948,-18.57674922027466
3.258,0.0,-27.686191288229512,-26.43366089143349
3.258,0.0,-18.82441988629586,-23.978269902179388
3.259,0.0,-45.69934431047532,-20.88242757720813
3.259,0.0,-27.697780795636845,-14.923402932518382
3.269,193.40659340659337,148.62499840794405,118.89636836574587
3.27,188.57142857142856,145.97870924826486,116.66837826274661
3.27,0.0,-28.428140875508568,-22.4237666154402
3.27,0.0,-43.24818729478533,-34.439276706656386
3.271,0.0,-17.489088919767827,-22.259357536380488
3.271,0.0,-25.151125443815047,-9.99732540330498
3.271,0.0,-10.230219747938106,-12.13050244778309
3.271,0.0,-6.441721652795853,-23.398132992898105
3.272,0.0,-1.1861749646018869,-14.2765989345949
3.272,0.0,4.362957275863382,-0.5337189690179855
3.272,0.0,5.852025700844255,7.016861858925122
3.272,0.0,6.466640756135089,11.943057467302408
3.273,0.0,6.026910849760336,15.850668610550112
3.273,0.0,-0.4857056031076734,13.61619646814405
3.273,0.0,-5.680062580345455,0.17583036986421352
3.273,0.0,-15.93469006534222,-17.407019316408377
3.274,0.0,-35.0565887804149,-29.483374385593525
3.274,0.0,-37.5264170382392,-37.18833672047011
3.274,0.0,-81.21587333936715,-52.5372784417039
3.275,0.0,-68.6316693752126,-57.80363662475948
3.285,182.93040293040292,56.387571261445636,23.128220612657124
3.285,191.7948717948718,77.53519091357373,43.60107441035561
3.286,193.40659340659337,36.2575443475567,34.97942908740315
3.286,193.40659340659337,33.67528408958037,29.98826929950219
3.286,193.40659340659337,16.012082866773305,16.81545236628303
3.286,194.2124542124542,7.3963405794706425,9.213734492311099
3.287,194.2124542124542,5.532217269589438,6.980834296659939
3.287,193.40659340659337,-0.25834347453275797,7.586476794230891
3.287,195.018315018315,7.04808436133413,5.35527735684738
3.287,193.40659340659337,9.683014462704673,6.518586436698211
3.288,193.40659340659337,15.276513866100037,15.665001833392562
3.288,189.37728937728937,30.848757026326293,30.203070106584335
3.288,193.40659340659337,26.439210482970516,35.106970875390665
3.289,193.40659340659337,67.21032848333309,45.12869169519392
3.289,191.7948717948718,37.47624812044057,19.6378500787003
3.299,0.0,-112.34168262046668,-76.68685729565104
3.3,0.0,-132.90526308927872,-116.20209961144236
3.3,0.0,-131.36421092492077,-119.57967317904246
3.3,16.117216117216117,-102.2522582576559,-80.76670881034143
3.3,206.3003663003663,47.56460708555583,36.268159397260064
3.301,207.1062271062271,74.64544821668602,49.64712837196905
3.301,215.16483516483518,42.346275255524844,41.56497727673426
3.301,204.68864468864467,44.224790654367816,39.55124613439676
3.301,198.24175824175825,20.990840317165762,30.408071838375445
3.302,193.40659340659337,17.835530635275852,14.780089517499501
3.302,186.15384615384613,13.78483967115157,5.106994931034197
3.302,187.76556776556774,16.613619458277537,10.563937315518457
3.303,182.93040293040292,33.21570958079057,24.772463961568363
3.303,182.93040293040292,29.410374191326405,33.98493999879211
3.303,175.67765567765568,67.27714526414556,45.005411893235475
3.303,175.67765567765568,51.79715459011997,29.093267677199364
3.314,0.0,-65.97507189614203,-45.43819968722613
3.314,0.0,-79.3301980297329,-41.12959664547512
3.314,0.0,-36.6193296455412,-27.027665298774775
3.315,0.0,-34.15989892909204,-25.080650092673103
3.315,0.0,-15.494576105207468,-20.679370173728042
3.315,0.0,-5.2857524851328925,-9.850430900884195
3.315,0.0,0.1088276957314811,0.5348739229191253
3.316,0.0,7.04566978273845,6.7292657805922484
3.316,0.0,7.268879822567056,9.780664016599205
3.316,0.0,8.725862524938627,10.90223490023929
3.317,0.0,5.295563253057317,8.595533393968024
3.317,0.0,3.340852115641348,0.5612742955130309
3.317,0.0,-3.721949295034105,-8.287970633461924
3.317,0.0,-8.932681069001543,-11.222071868579803
3.318,0.0,-15.135350214433624,-13.93645379478414
3.318,0.0,-29.443686061456983,-19.46295030325937
3.318,0.0,-23.1512738541145,-21.381898303692537
3.318,0.0,-52.83055779757085,-34.936798907181334
3.319,0.0,-29.730263271545414,-35.1120155874754
3.329,193.40659340659337,131.81013748827934,93.88364031307184
3.329,199.04761904761904,160.66825622382788,135.10873818265765
3.33,78.97435897435898,27.573567581768668,27.12301892363907
3.33,0.0,-37.973445061369674,-47.32383995766867
3.33,0.0,-34.68000149582717,-45.5693445111347
3.331,0.0,-25.352197916114285,-7.461902954107915
3.331,0.0,-17.17409867214865,-5.227933553803292
3.331,0.0,-9.922108946360343,-8.467695462705196
3.331,0.0,-3.1025244554742013,-3.6964160893211364
3.332,0.0,1.533962465391133,0.41517186500408804
3.332,0.0,2.959096004883132,5.432179406422695
3.332,0.0,4.476763781598651,8.04451716467027
3.332,0.0,-1.3729390461189075,0.21866421403243969
3.333,0.0,-5.791416303930987,-10.030830703542687
3.333,0.0,-15.622768576526937,-7.686814312126977
3.333,0.0,-35.02637450293898,-11.669459760650023
3.333,0.0,-36.750148812318194,-35.20266335693808
3.334,0.0,-82.04987031360061,-65.58509541742268
3.334,0.0,-67.94426227343338,-44.632124159491454
3.345,190.1831501831502,62.029579344544416,50.700044140499514
3.345,193.40659340659337,78.7735470725759,42.065510108168816
3.345,191.7948717948718,32.95390320556506,21.02519502604772
3.345,194.2124542124542,32.71362311951538,17.824345299879063
3.346,193.40659340659337,14.244181057077448,14.401951243410071
3.346,193.40659340659337,4.063841787332031,9.423410491205322
3.346,193.40659340659337,2.9794733927569155,5.8840159824581475
3.346,194.2124542124542,-2.0228384696319495,-1.110302791351667
3.347,193.40659340659337,4.917073510498341,-2.7739304797873734
3.347,194.2124542124542,8.78532257059318,12.105490452486869
3.347,194.2124542124542,19.275442220091726,31.13230858330469
3.348,193.40659340659337,35.64983166569333,39.70262164430175
3.348,193.40659340659337,36.17005350220782,39.905250589420135
3.348,192.6007326007326,73.61059073537258,46.07914560103551
3.348,193.40659340659337,54.22466728893925,39.66668379301382
3.359,0.0,-88.68602369495505,-70.6074559965386
3.359,0.0,-123.8572318220597,-109.39828250105411
3.359,0.0,-77.51809352053604,-72.12944676059347
3.36,0.0,-127.65395704489444,-99.78978331297756
3.36,0.0,-81.91245168067357,-49.12811859399871
3.36,191.7948717948718,44.02496126511188,32.34537121696772
3.36,141.8315018315018,33.266899863559075,32.93952194101173
3.361,193.40659340659337,32.391197307776224,20.925921968890894
3.361,206.3003663003663,59.38277055644684,26.594930690129992
3.361,203.07692307692307,38.45120258872178,32.518637036997866
3.361,199.85347985347985,32.87458061812459,31.568631435100894
3.362,195.8241758241758,32.966162366283385,31.970594664063917
3.362,195.018315018315,40.81215276779871,37.419240466915454
3.362,190.989010989011,37.75760860073088,39.90171208397653
3.363,185.34798534798534,70.74431851330989,42.545650072358335
3.363,182.1245421245421,53.165677035421034,36.98438998892516
3.373,0.0,-71.32643568927148,-47.9965237153186
3.374,0.0,-85.32506011921133,-63.78575757911432
3.374,0.0,-40.79309987174607,-48.74167227634946
3.374,0.0,-38.39202698827052,-38.16023894975318
3.374,0.0,-18.319300990783606,-16.700867236877812
3.375,0.0,-7.172668877495639,-2.7264644695993647
3.375,0.0,-1.0737028880779356,2.690757928958293
3.375,0.0,7.195193320351446,3.0484694530946763
3.375,0.0,8.151064620976138,2.1085010721650903
3.376,0.0,10.217896297403128,1.7544483017365062
3.376,0.0,9.039738021109137,5.316421759402004
3.376,0.0,5.289276362601306,9.493572218575862
3.376,0.0,2.9748663211393263,12.7466221126673
3.377,0.0,-5.843493092114356,10.64851644811347
3.377,0.0,-10.050182217726931,-3.7522165012940087
3.377,0.0,-19.47227438864614,-21.236097209521013
3.378,0.0,-32.408825017910736,-29.474355691614306
3.378,0.0,-28.333467386053137,-29.278678697317996
3.378,0.0,-61.87335212861837,-36.621976949951424
3.378,0.0,-30.39831596331687,-24.48362489800818
3.389,192.6007326007326,110.39750346803439,75.32294399296069
3.389,199.04761904761904,168.04578389079592,140.04117743071595
3.389,167.61904761904762,88.57864551081595,69.54785144828116
3.39,0.0,-30.41962398525323,-30.0199699558215
3.39,0.0,-55.22585682844383,-39.05165154534393
3.39,0.0,-25.571825229913863,-20.848091432122427
3.39,0.0,-25.892837585035828,-21.674312121890118
3.391,0.0,-14.447685031376835,-18.29131048829128
3.391,0.0,-5.415265379392393,-2.447952282475286
3.391,0.0,-1.890108372753076,11.169179988027341
3.392,0.0,2.6500412102923976,11.908543897340023
3.392,0.0,3.388303847989418,6.265801282118654
3.392,0.0,-1.0478545275994264,-0.12871977515767263
3.392,0.0,-5.403247457101131,-9.483680417384083
3.393,0.0,-14.972622741520214,-20.345494996040337
3.393,0.0,-33.90626616994168,-34.137955213828775
3.393,0.0,-36.20346972522214,-43.75912739415304
3.393,0.0,-80.36387674007729,-55.85812933878179
3.394,0.0,-67.87318372365618,-41.05640661366088
3.404,185.34798534798534,59.117019805040044,43.59337085331436
3.405,193.40659340659337,78.61256166924038,43.66043358900938
3.405,191.7948717948718,34.455414391037195,31.680892407614717
3.405,193.40659340659337,31.8484044426361,27.9283752627727
3.405,190.989010989011,12.701490025739364,19.864782432766123
3.406,193.40659340659337,4.102152754499425,6.287196371135637
3.406,193.40659340659337,3.5313612995622847,-3.6985483185124672
3.406,193.40659340659337,-2.7062119086746144,-2.479174577351366
3.406,193.40659340659337,5.703208968375218,4.175763307761946
3.407,193.40659340659337,8.652393819179238,9.696536727507073
3.407,191.7948717948718,17.979079930941168,17.915261915442173
3.407,192.6007326007326,37.85254471514186,27.504688381435123
3.407,192.6007326007326,36.170095419349764,35.189395952361544
3.408,193.40659340659337,81.5084314534452,60.16414235364516
3.408,193.40659340659337,56.48012239880535,63.026609026919104
3.418,0.0,-81.84252454609276,-42.85736731205817
3.419,0.0,-109.65693839520338,-83.3971304819801
3.419,0.0,-87.33439044464649,-94.89142393783645
3.419,0.0,-85.3151057776376,-90.04570204067515
3.42,0.0,-120.5475757981601,-98.0763748159268
3.42,0.0,-86.25087662346368,-74.66707267717989
3.42,239.34065934065936,86.57457858136146,58.697789274341645
3.42,224.8351648351648,104.82733915651374,76.84930664809976
3.421,208.71794871794867,41.72132197718173,44.49252296742135
3.421,205.4945054945055,45.58899206513396,42.772053900827686
3.421,199.04761904761904,28.20787337627734,19.446928006684843
3.421,193.40659340659337,18.819388975643754,13.043957397965187
3.422,192.6007326007326,25.192788273132976,17.586010333371878
3.422,188.57142857142856,31.739058370635153,29.53169408456366
3.422,181.3186813186813,27.2287253734952,34.66805607593984
3.423,180.5128205128205,66.0382892678828,43.01161331347212
3.423,178.9010989010989,51.859861475234105,27.44460524987825
3.433,0.0,-69.6872727336311,-51.57265574055119
3.434,0.0,-82.53566122427259,-48.54160606476712
3.434,0.0,-38.469552079196475,-34.38409094784184
3.434,0.0,-35.88130298884662,-28.49354167977133
3.434,0.0,-16.010839186835135,-18.47274335601752
3.435,0.0,-5.43010645835475,-2.057214251651251
3.435,0.0,0.6598017036409587,11.673413286753675
3.435,0.0,7.889296396454258,16.0387614054712
3.435,0.0,8.425269258337465,14.603258858957421
3.436,0.0,9.84192721700779,10.467759589789164
3.436,0.0,6.073369830904619,4.352348294478656
3.436,0.0,3.9842625437194545,-2.753681293277611
3.437,0.0,-4.899645871252358,-8.732777001739922
3.437,0.0,-9.912026794837558,-9.297841558531895
3.437,0.0,-19.674164344173626,-11.60321248504614
3.437,0.0,-34.76591575503654,-20.179558908169685
3.438,0.0,-30.203621873108215,-27.794815728616115
3.438,0.0,-67.763903799205,-49.62236274057897
3.438,0.0,-35.15795606471869,-47.99017925624512
3.449,195.018315018315,105.69123935724659,67.5557810832748
3.449,194.2124542124542,152.26180170853058,138.73580049427682
3.449,193.40659340659337,110.87997282056082,88.76431755120302
3.449,64.46886446886447,17.178304046379417,1.8732943717044348
3.45,0.0,-55.98405206052033,-34.19948565584902
3.45,0.0,-40.373611142582945,-29.89400361674039
3.45,0.0,-28.53402160290263,-25.515513838648708
3.451,0.0,-22.212540433376695,-12.62398232612937
3.451,0.0,-9.338322816064176,-13.029895785114535
3.451,0.0,-4.693917687764104,-15.638433330232173
3.451,0.0,-0.027455185705004048,-3.999835301676388
3.452,0.0,2.75304278357965,6.286735038365311
3.452,0.0,-1.9942307048795325,-1.1293761680218077
3.452,0.0,-5.192172309931568,-13.062892131277744
3.452,0.0,-14.801508671303727,-12.126465604790004
3.453,0.0,-33.531890420873125,-16.317313069101417
3.453,0.0,-35.23598043935783,-36.482051829730025
3.453,0.0,-80.5368764385464,-62.05030019471764
3.453,0.0,-66.00297174650542,-36.779530275212586
3.464,189.37728937728937,62.11656679283462,58.852628772743586
3.464,190.989010989011,78.57459298786804,50.73757488138113
3.465,193.40659340659337,34.68134911927898,27.959438135169552
3.465,190.989010989011,31.44656441289784,19.753099512258807
3.465,189.37728937728937,9.689350104637686,11.499399580258316
3.465,189.37728937728937,1.3360286067588838,5.52161659556574
3.466,193.40659340659337,1.8005108423142815,2.746392009078885
3.466,193.40659340659337,-2.205146102952856,-2.8824078639721313
3.466,193.40659340659337,3.7545279649147503,-3.4754449187981225
3.466,190.989010989011,5.3627435745545355,9.849114209060051
3.467,193.40659340659337,19.38821318398794,27.795545450389987
3.467,192.6007326007326,34.375835531790884,38.32814216055593
3.467,190.989010989011,38.7038144899612,39.80489928686864
3.467,211.1355311355311,94.43760780324264,61.030569826852584
3.468,192.6007326007326,63.757874338644946,45.7705550986814
3.478,0.0,-82.29411948077042,-63.15482926378921
3.478,0.0,-102.07561796118506,-84.68607672448054
3.479,0.0,-74.58744846874306,-80.42120127607122
3.479,0.0,-87.402284092679,-74.71169438204669
3.479,0.0,-86.45075562724828,-84.50369608070788
3.48,0.0,-102.76998378293409,-81.9018202171584
3.48,83.00366300366301,-24.21537900863307,-2.9911536142897317
3.48,232.89377289377288,96.99119760729856,76.01092101506339
3.48,223.2234432234432,87.98392566391807,71.76346738191448
3.481,207.9120879120879,46.35595862708414,41.5470933654425
