Time (s),ECG
1.571,239
1.571,242
1.572,239
1.572,240
1.572,240
1.583,0
1.583,0
1.583,0
1.584,0
1.584,0
1.584,0
1.584,38
1.585,187
1.585,285
1.585,267
1.585,264
1.586,254
1.586,244
1.586,238
1.586,224
1.587,232
1.597,0
1.598,0
1.598,0
1.598,0
1.598,0
1.599,0
1.599,0
1.599,0
1.599,0
1.6,0
1.6,0
1.6,0
1.6,0
1.601,0
1.601,0
1.601,0
1.602,0
1.602,0
1.602,0
1.602,0
1.613,240
1.613,243
1.613,237
1.614,204
1.614,0
1.614,0
1.614,0
1.615,0
1.615,0
1.615,0
1.616,0
1.616,0
1.616,0
1.616,0
1.617,0
1.617,0
1.617,0
1.617,0
1.618,0
1.628,233
1.628,240
1.629,240
1.629,240
1.629,239
1.63,240
1.63,240
1.63,242
1.63,236
1.631,240
1.631,240
1.631,242
1.631,240
1.632,240
1.632,236
1.642,0
1.643,0
1.643,0
1.643,0
1.643,0
1.644,0
1.644,0
1.644,125
1.645,286
1.645,272
1.645,269
1.645,259
1.646,241
1.646,238
1.646,231
1.646,233
1.647,223
1.657,0
1.657,0
1.658,0
1.658,0
1.658,0
1.659,0
1.659,0
1.659,0
1.659,0
1.66,0
1.66,0
1.66,0
1.66,0
1.661,0
1.661,0
1.661,0
1.662,0
1.662,0
1.662,0
1.673,240
1.673,244
1.673,240
1.673,240
1.674,239
1.674,4
1.674,0
1.674,0
1.675,0
1.675,0
1.675,0
1.675,0
1.676,0
1.676,0
1.676,0
1.677,0
1.677,0
1.677,0
1.677,0
1.688,229
1.688,235
1.688,240
1.689,231
1.689,229
1.689,234
1.689,235
1.69,240
1.69,237
1.69,240
1.691,236
1.691,235
1.691,240
1.691,234
1.692,234
1.702,0
1.702,0
1.703,0
1.703,0
1.703,0
1.703,0
1.704,0
1.704,0
1.704,246
1.705,291
1.705,256
1.705,260
1.705,243
1.706,240
1.706,239
1.706,240
1.706,224
1.717,0
1.717,0
1.717,0
1.718,0
1.718,0
1.718,0
1.718,0
1.719,0
1.719,0
1.719,0
1.72,0
1.72,0
1.72,0
1.72,0
1.721,0
1.721,0
1.721,0
1.721,0
1.722,0
1.732,239
1.732,247
1.733,241
1.733,240
1.733,244
1.734,161
1.734,0
1.734,0
1.734,0
1.735,0
1.735,0
1.735,0
1.735,0
1.736,0
1.736,0
1.736,0
1.737,0
1.737,0
1.747,209
1.748,240
1.748,234
1.748,240
1.748,240
1.749,240
1.749,234
1.749,239
1.749,240
1.75,240
1.75,238
1.75,241
1.75,240
1.751,240
1.751,239
1.761,0
1.762,0
1.762,0
1.762,0
1.763,0
1.763,0
1.763,0
1.763,0
1.764,0
1.764,73
1.764,299
1.764,279
1.765,269
1.765,256
1.765,245
1.766,240
1.766,240
1.776,0
1.777,0
1.777,0
1.777,0
1.777,0
1.778,0
1.778,0
1.778,0
1.778,0
1.779,0
1.779,0
1.779,0
1.78,0
1.78,0
1.78,0
1.78,0
1.781,0
1.781,0
1.781,0
1.781,0
1.792,240
1.792,247
1.792,245
1.793,245
1.793,245
1.793,230
1.794,2
1.794,0
1.794,0
1.794,0
1.795,0
1.795,0
1.795,0
1.795,0
1.796,0
1.796,0
1.796,0
1.797,0
1.807,208
1.807,237
1.808,238
1.808,239
1.808,237
1.808,235
1.809,237
1.809,240
1.809,237
1.809,240
1.81,234
1.81,239
1.81,238
1.811,240
1.811,240
1.821,0
1.822,0
1.822,0
1.822,0
1.822,0
1.823,0
1.823,0
1.823,0
1.823,0
1.824,0
1.824,208
1.824,291
1.825,267
1.825,261
1.825,250
1.825,245
1.826,231
1.826,231
1.836,0
1.837,0
1.837,0
1.837,0
1.837,0
1.838,0
1.838,0
1.838,0
1.839,0
1.839,0
1.839,0
1.839,0
1.84,0
1.84,0
1.84,0
1.84,0
1.841,0
1.841,0
1.841,0
1.852,242
1.852,247
1.852,247
1.852,243
1.853,247
1.853,241
1.853,150
1.854,0
1.854,0
1.854,0
1.854,0
1.855,0
1.855,0
1.855,0
1.855,0
1.856,0
1.856,0
1.856,0
1.867,219
1.867,227
1.867,240
1.868,234
1.868,235
1.868,240
1.868,238
1.869,240
1.869,237
1.869,240
1.869,239
1.87,230
1.87,240
1.87,240
1.871,236
1.881,0
1.881,0
1.882,0
1.882,0
1.882,0
1.882,0
1.883,0
1.883,0
1.883,0
1.883,0
1.884,130
1.884,293
1.884,274
1.885,258
1.885,258
1.885,245
1.885,240
1.886,224
1.896,0
1.896,0
1.897,0
1.897,0
1.897,0
1.897,0
1.898,0
1.898,0
1.898,0
1.899,0
1.899,0
1.899,0
1.899,0
1.9,0
1.9,0
1.9,0
1.9,0
1.901,0
1.901,0
1.911,245
1.912,256
1.912,253
1.912,251
1.912,247
1.913,249
1.913,229
1.913,0
1.914,0
1.914,0
1.914,0
1.914,0
1.915,0
1.915,0
1.915,0
1.915,0
1.916,0
1.916,0
1.926,212
1.927,211
1.927,239
1.927,237
1.928,237
1.928,230
1.928,238
1.928,230
1.929,233
1.929,240
1.929,235
1.929,239
1.93,240
1.93,238
1.93,240
1.941,0
1.941,0
1.941,0
1.942,0
1.942,0
1.942,0
1.942,0
1.943,0
1.943,0
1.943,0
1.943,26
1.944,261
1.944,287
1.944,264
1.945,259
1.945,245
1.945,243
1.956,0
1.956,0
1.956,0
1.956,0
1.957,0
1.957,0
1.957,0
1.957,0
1.958,0
1.958,0
1.958,0
1.959,0
1.959,0
1.959,0
1.959,0
1.96,0
1.96,0
1.96,0
1.96,0
1.961,0
1.971,240
1.971,244
1.972,245
1.972,246
1.972,247
1.973,244
1.973,238
1.973,22
1.973,0
1.974,0
1.974,0
1.974,0
1.974,0
1.975,0
1.975,0
1.975,0
1.976,0
1.976,0
1.986,212
1.987,218
1.987,239
1.987,236
1.987,231
1.988,233
1.988,231
1.988,231
1.988,234
1.989,239
1.989,240
1.989,237
1.99,230
1.99,240
1.99,235
2.001,0
2.001,0
2.001,0
2.001,0
2.002,0
2.002,0
2.002,0
2.002,0
2.003,0
2.003,0
2.003,0
2.004,129
2.004,295
2.004,275
2.004,263
2.005,254
2.005,240
2.005,240
2.016,0
2.016,0
2.016,0
2.016,0
2.017,0
2.017,0
2.017,0
2.018,0
2.018,0
2.018,0
2.018,0
2.019,0
2.019,0
2.019,0
2.019,0
2.02,0
2.02,0
2.02,0
2.02,0
2.031,244
2.031,251
2.031,242
2.032,242
2.032,243
2.032,246
2.033,241
2.033,179
2.033,0
2.033,0
2.034,0
2.034,0
2.034,0
2.034,0
2.035,0
2.035,0
2.035,0
2.046,225
2.046,224
2.046,218
2.046,215
2.047,240
2.047,238
2.047,240
2.048,238
2.048,239
2.048,237
2.048,235
2.049,240
2.049,238
2.049,239
2.049,241
2.06,0
2.06,0
2.06,0
2.061,0
2.061,0
2.061,0
2.062,0
2.062,0
2.062,0
2.062,0
2.063,0
2.063,0
2.063,10
2.063,238
2.064,286
2.064,272
2.064,263
2.064,249
2.075,0
2.075,0
2.075,0
2.076,0
2.076,0
2.076,0
2.077,0
2.077,0
2.077,0
2.077,0
2.078,0
2.078,0
2.078,0
2.078,0
2.079,0
2.079,0
2.079,0
2.079,0
2.08,0
2.08,0
2.09,243
2.091,247
2.091,249
2.091,252
2.092,249
2.092,250
2.092,245
2.092,241
2.093,166
2.093,0
2.093,0
2.093,0
2.094,0
2.094,0
2.094,0
2.095,0
2.095,0
2.105,221
2.106,221
2.106,221
2.106,219
2.106,214
2.107,238
2.107,240
2.107,234
2.107,233
2.108,230
2.108,235
2.108,236
2.108,234
2.109,237
2.109,231
2.119,0
2.12,0
2.12,0
2.12,0
2.121,0
2.121,0
2.121,0
2.121,0
2.122,0
2.122,0
2.122,0
2.122,0
2.123,0
2.123,0
2.123,272
2.124,292
2.124,273
2.124,263
2.135,0
2.135,0
2.135,0
2.135,0
2.136,0
2.136,0
2.136,0
2.136,0
2.137,0
2.137,0
2.137,0
2.138,0
2.138,0
2.138,0
2.138,0
2.139,0
2.139,0
2.139,0
2.139,0
2.14,0
2.15,246
2.15,254
2.151,252
2.151,240
2.151,256
2.152,250
2.152,245
2.152,246
2.152,252
2.153,59
2.153,0
2.153,0
2.153,0
2.154,0
2.154,0
2.154,0
2.154,0
2.165,223
2.165,219
2.166,221
2.166,215
2.166,208
2.166,233
2.167,233
2.167,234
2.167,231
2.167,236
2.168,233
2.168,234
2.168,234
2.168,233
2.169,237
2.179,0
2.179,0
2.18,0
2.18,0
2.18,0
2.181,0
2.181,0
2.181,0
2.181,0
2.182,0
2.182,0
2.182,0
2.182,0
2.183,0
2.183,201
2.183,291
2.184,285
2.184,257
2.184,256
2.195,0
2.195,0
2.195,0
2.195,0
2.196,0
2.196,0
2.196,0
2.196,0
2.197,0
2.197,0
2.197,0
2.198,0
2.198,0
2.198,0
2.198,0
2.199,0
2.199,0
2.199,0
2.199,0
2.21,245
2.21,249
2.21,247
2.211,246
2.211,250
2.211,246
2.212,245
2.212,245
2.212,252
2.212,215
2.213,0
2.213,0
2.213,0
2.213,0
2.214,0
2.214,0
2.214,0
2.225,227
2.225,228
2.225,224
2.226,219
2.226,219
2.226,219
2.226,239
2.227,235
2.227,234
2.227,238
2.227,230
2.228,230
2.228,235
2.228,239
2.229,237
2.239,0
2.239,0
2.24,0
2.24,0
2.24,0
2.24,0
2.241,0
2.241,0
2.241,0
2.241,0
2.242,0
2.242,0
2.242,0
2.243,0
2.243,115
2.243,251
2.243,272
2.244,262
2.254,0
2.254,0
2.255,0
2.255,0
2.255,0
2.255,0
2.256,0
2.256,0
2.256,0
2.257,0
2.257,0
2.257,0
2.257,0
2.258,0
2.258,0
2.258,0
2.258,0
2.259,0
2.259,0
2.259,0
2.27,243
2.27,247
2.27,243
2.271,245
2.271,249
2.271,245
2.271,245
2.272,245
2.272,246
2.272,176
2.272,0
2.273,0
2.273,0
2.273,0
2.273,0
2.274,0
2.274,0
2.285,225
2.285,226
2.285,224
2.285,224
2.286,222
2.286,213
2.286,240
2.286,235
2.287,238
2.287,235
2.287,233
2.287,236
2.288,238
2.288,235
2.288,235
2.299,0
2.299,0
2.299,0
2.3,0
2.3,0
2.3,0
2.3,0
2.301,0
2.301,0
2.301,0
2.301,0
2.302,0
2.302,0
2.302,0
2.303,106
2.303,272
2.303,263
2.303,256
2.304,250
2.314,0
2.314,0
2.315,0
2.315,0
2.315,0
2.316,0
2.316,0
2.316,0
2.316,0
2.317,0
2.317,0
2.317,0
2.317,0
2.318,0
2.318,0
2.318,0
2.318,0
2.319,0
2.319,0
2.329,240
2.33,251
2.33,242
2.33,240
2.331,245
2.331,244
2.331,243
2.331,242
2.332,240
2.332,239
2.332,51
2.332,0
2.333,0
2.333,0
2.333,0
2.334,0
2.334,0
2.344,229
2.344,225
2.345,229
2.345,221
2.345,214
2.346,209
2.346,225
2.346,230
2.346,232
2.347,235
2.347,230
2.347,227
2.347,234
2.348,234
2.348,230
2.359,0
2.359,0
2.359,0
2.359,0
2.36,0
2.36,0
2.36,0
2.36,0
2.361,0
2.361,0
2.361,0
2.361,0
2.362,0
2.362,0
2.362,0
2.363,207
2.363,291
2.363,275
2.374,0
2.374,0
2.374,0
2.374,0
2.375,0
2.375,0
2.375,0
2.375,0
2.376,0
2.376,0
2.376,0
2.377,0
2.377,0
2.377,0
2.377,0
2.378,0
2.378,0
2.378,0
2.378,0
2.379,0
2.389,242
2.389,247
2.39,243
2.39,242
2.39,242
2.391,242
2.391,240
2.391,245
2.391,245
2.392,239
2.392,208
2.392,0
2.392,0
2.393,0
2.393,0
2.393,0
2.404,235
2.404,230
2.404,229
2.404,225
2.405,222
2.405,215
2.405,211
2.406,208
2.406,230
2.406,225
2.406,227
2.407,229
2.407,226
2.407,228
2.407,227
2.418,0
2.418,0
2.418,0
2.419,0
2.419,0
2.419,0
2.42,0
2.42,0
2.42,0
2.42,0
2.421,0
2.421,0
2.421,0
2.421,0
2.422,0
2.422,0
2.422,0
2.422,195
2.423,302
2.423,274
2.433,0
2.434,0
2.434,0
2.434,0
2.435,0
2.435,0
2.435,0
2.435,0
2.436,0
2.436,0
2.436,0
2.436,0
2.437,0
2.437,0
2.437,0
2.437,0
2.438,0
2.438,0
2.438,0
2.449,240
2.449,242
2.449,243
2.45,242
2.45,240
2.45,245
2.45,247
2.451,245
2.451,240
2.451,237
2.452,239
2.452,157
2.452,0
2.452,0
2.453,0
2.453,0
2.463,238
2.464,237
2.464,235
2.464,225
2.464,225
2.465,210
2.465,214
2.465,208
2.465,208
2.466,231
2.466,221
2.466,225
2.467,220
2.467,226
2.467,224
2.478,0
2.478,0
2.478,0
2.478,0
2.479,0
2.479,0
2.479,0
2.48,0
2.48,0
2.48,0
2.48,0
2.481,0
2.481,0
2.481,0
2.481,0
2.482,0
2.482,0
2.482,83
2.482,299
2.493,0
2.493,0
2.494,0
2.494,0
2.494,0
2.494,0
2.495,0
2.495,0
2.495,0
2.495,0
2.496,0
2.496,0
2.496,0
2.496,0
2.497,0
2.497,0
2.497,0
2.498,0
2.498,0
2.498,0
2.509,240
2.509,241
2.509,246
2.509,245
2.51,246
2.51,243
2.51,243
2.511,241
2.511,246
2.511,245
2.511,241
2.512,218
2.512,0
2.512,0
2.512,0
2.513,0
2.523,241
2.523,235
2.524,228
2.524,229
2.524,222
2.525,218
2.525,215
2.525,208
2.525,209
2.526,229
2.526,234
2.526,224
2.526,226
2.527,224
2.527,229
2.537,0
2.538,0
2.538,0
2.538,0
2.539,0
2.539,0
2.539,0
2.539,0
2.54,0
2.54,0
2.54,0
2.54,0
2.541,0
2.541,0
2.541,0
2.541,0
2.542,0
2.542,51
2.542,279
2.543,288
2.553,0
2.553,0
2.554,0
2.554,0
2.554,0
2.554,0
2.555,0
2.555,0
2.555,0
2.555,0
2.556,0
2.556,0
2.556,0
2.557,0
2.557,0
2.557,0
2.557,0
2.558,0
2.558,0
2.568,240
2.569,247
2.569,243
2.569,241
2.569,244
2.57,242
2.57,243
2.57,243
2.57,244
2.571,245
2.571,242
2.571,240
2.572,112
2.572,0
2.572,0
2.572,0
2.583,245
2.583,242
2.583,240
2.584,233
2.584,221
2.584,223
2.584,221
2.585,209
2.585,211
2.585,215
2.586,230
2.586,224
2.586,225
2.586,225
2.587,225
2.597,0
2.597,0
2.598,0
2.598,0
2.598,0
2.598,0
2.599,0
2.599,0
2.599,0
2.6,0
2.6,0
2.6,0
2.6,0
2.601,0
2.601,0
2.601,0
2.601,0
2.602,0
2.602,91
2.612,0
2.613,0
2.613,0
2.613,0
2.614,0
2.614,0
2.614,0
2.614,0
2.615,0
2.615,0
2.615,0
2.615,0
2.616,0
2.616,0
2.616,0
2.616,0
2.617,0
2.617,0
2.617,0
2.618,0
2.628,240
2.628,247
2.629,245
2.629,245
2.629,251
2.629,242
2.63,245
2.63,245
2.63,245
2.63,241
2.631,241
2.631,243
2.631,208
2.632,0
2.632,0
2.632,0
2.643,234
2.643,245
2.643,239
2.643,231
2.644,226
2.644,224
2.644,219
2.644,209
2.645,201
2.645,208
2.645,225
2.646,231
2.646,227
2.646,218
2.646,226
2.657,0
2.657,0
2.657,0
2.658,0
2.658,0
2.658,0
2.658,0
2.659,0
2.659,0
2.659,0
2.659,0
2.66,0
2.66,0
2.66,0
2.661,0
2.661,0
2.661,0
2.661,0
2.662,0
2.662,241
2.672,0
2.673,0
2.673,0
2.673,0
2.673,0
2.674,0
2.674,0
2.674,0
2.675,0
2.675,0
2.675,0
2.675,0
2.676,0
2.676,0
2.676,0
2.676,0
2.677,0
2.677,0
2.677,0
2.688,240
2.688,245
2.688,248
2.688,243
2.689,241
2.689,244
2.689,243
2.69,240
2.69,241
2.69,245
2.69,253
2.691,240
2.691,240
2.691,151
2.691,0
2.702,238
2.702,183
2.702,235
2.703,240
2.703,231
2.703,231
2.704,221
2.704,220
2.704,213
2.704,209
2.705,208
2.705,215
2.705,227
2.705,225
2.706,222
2.716,0
2.716,0
2.717,0
2.717,0
2.717,0
2.718,0
2.718,0
2.718,0
2.718,0
2.719,0
2.719,0
2.719,0
2.719,0
2.72,0
2.72,0
2.72,0
2.72,0
2.721,0
2.721,0
2.721,0
2.732,0
2.732,0
2.732,0
2.733,0
2.733,0
2.733,0
2.733,0
2.734,0
2.734,0
2.734,0
2.734,0
2.735,0
2.735,0
2.735,0
2.736,0
2.736,0
2.736,0
2.736,0
2.737,0
2.737,0
2.747,239
2.748,245
2.748,248
2.748,247
2.748,245
2.749,243
2.749,243
2.749,243
2.75,243
2.75,241
2.75,241
2.75,243
2.751,240
2.751,221
2.751,0
2.762,193
2.762,266
2.762,242
2.762,244
2.763,237
2.763,229
2.763,225
2.764,219
2.764,214
2.764,215
2.764,212
2.765,207
2.765,226
2.765,225
2.765,222
2.776,0
2.776,0
2.776,0
2.777,0
2.777,0
2.777,0
2.777,0
2.778,0
2.778,0
2.778,0
2.779,0
2.779,0
2.779,0
2.779,0
2.78,0
2.78,0
2.78,0
2.78,0
2.781,0
2.781,0
2.792,0
2.792,0
2.792,0
2.792,0
2.793,0
2.793,0
2.793,0
2.793,0
2.794,0
2.794,0
2.794,0
2.794,0
2.795,0
2.795,0
2.795,0
2.796,0
2.796,0
2.796,0
2.796,0
2.797,0
2.807,241
2.807,247
2.808,245
2.808,247
2.808,244
2.808,247
2.809,245
2.809,241
2.809,241
2.81,247
2.81,247
2.81,244
2.81,241
2.811,240
2.811,127
2.821,85
2.822,281
2.822,267
2.822,257
2.822,247
2.823,240
2.823,234
2.823,230
2.824,223
2.824,221
2.824,216
2.824,213
2.825,217
2.825,224
2.825,227
2.836,0
2.836,0
2.836,0
2.836,0
2.837,0
2.837,0
2.837,0
2.838,0
2.838,0
2.838,0
2.838,0
2.839,0
2.839,0
2.839,0
2.839,0
2.84,0
2.84,0
2.84,0
2.84,0
2.841,0
2.851,0
2.852,0
2.852,0
2.852,0
2.852,0
2.853,0
2.853,0
2.853,0
2.853,0
2.854,0
2.854,0
2.854,0
2.854,0
2.855,0
2.855,0
2.855,0
2.856,0
2.856,0
2.856,0
2.856,0
2.867,240
2.867,245
2.867,251
2.868,249
2.868,247
2.868,250
2.868,247
2.869,241
2.869,240
2.869,243
2.87,244
2.87,241
2.87,243
2.87,245
2.871,199
2.881,0
2.881,176
2.882,247
2.882,262
2.882,256
2.882,244
2.883,241
2.883,236
2.883,227
2.884,225
2.884,222
2.884,220
2.884,211
2.885,231
2.885,231
2.895,0
2.896,0
2.896,0
2.896,0
2.896,0
2.897,0
2.897,0
2.897,0
2.897,0
2.898,0
2.898,0
2.898,0
2.899,0
2.899,0
2.899,0
2.899,0
2.9,0
2.9,0
2.9,0
2.9,0
2.911,0
2.911,0
2.911,0
2.912,0
2.912,0
2.912,0
2.913,0
2.913,0
2.913,0
2.913,0
2.914,0
2.914,0
2.914,0
2.914,0
2.915,0
2.915,0
2.915,0
2.916,0
2.916,0
2.916,0
2.927,237
2.927,247
2.927,245
2.927,249
2.928,262
2.928,251
2.928,244
2.928,241
2.929,241
2.929,243
2.929,241
2.93,247
2.93,243
2.93,241
2.93,238
2.941,0
2.941,34
2.941,281
2.942,274
2.942,258
2.942,267
2.942,243
2.943,234
2.943,235
2.943,225
2.944,228
2.944,220
2.944,213
2.944,223
2.945,235
2.955,0
2.955,0
2.956,0
2.956,0
2.956,0
2.956,0
2.957,0
2.957,0
2.957,0
2.958,0
2.958,0
2.958,0
2.958,0
2.959,0
2.959,0
2.959,0
2.959,0
2.96,0
2.96,0
2.96,0
2.971,0
2.971,0
2.971,0
2.972,0
2.972,0
2.972,0
2.972,0
2.973,0
2.973,0
2.973,0
2.973,0
2.974,0
2.974,0
2.974,0
2.975,0
2.975,0
2.975,0
2.975,0
2.976,0
2.976,0
2.986,240
2.987,247
2.987,242
2.987,246
2.987,247
2.988,246
2.988,245
2.988,246
2.989,243
2.989,252
2.989,245
2.989,243
2.99,246
2.99,240
2.99,242
3.001,0
3.001,32
3.001,270
3.001,282
3.002,264
3.002,256
3.002,249
3.003,242
3.003,233
3.003,233
3.003,227
3.004,222
3.004,215
3.004,215
3.004,238
3.005,237
3.015,0
3.015,0
3.016,0
3.016,0
3.016,0
3.016,0
3.017,0
3.017,0
3.017,0
3.018,0
3.018,0
3.018,0
3.018,0
3.019,0
3.019,0
3.019,0
3.019,0
3.02,0
3.02,0
3.03,114
3.031,0
3.031,0
3.031,0
3.031,0
3.032,0
3.032,0
3.032,0
3.033,0
3.033,0
3.033,0
3.033,0
3.034,0
3.034,0
3.034,0
3.034,0
3.035,0
3.035,0
3.035,0
3.036,0
3.046,240
3.046,240
3.047,240
3.047,242
3.047,244
3.047,247
3.048,241
3.048,242
3.048,240
3.048,240
3.049,240
3.049,240
3.049,241
3.05,240
3.05,239
3.06,0
3.06,0
3.061,45
3.061,272
3.061,279
3.062,265
3.062,254
3.062,240
3.062,240
3.063,231
3.063,231
3.063,229
3.063,224
3.064,213
3.064,214
3.074,0
3.075,0
3.075,0
3.075,0
3.076,0
3.076,0
3.076,0
3.076,0
3.077,0
3.077,0
3.077,0
3.077,0
3.078,0
3.078,0
3.078,0
3.079,0
3.079,0
3.079,0
3.079,0
3.08,0
3.09,223
3.09,0
3.091,0
3.091,0
3.091,0
3.091,0
3.092,0
3.092,0
3.092,0
3.093,0
3.093,0
3.093,0
3.093,0
3.094,0
3.094,0
3.094,0
3.094,0
3.095,0
3.095,0
3.095,0
3.106,242
3.106,251
3.106,246
3.107,247
3.107,250
3.107,243
3.107,243
3.108,247
3.108,250
3.108,246
3.108,240
3.109,244
3.109,241
3.109,245
3.109,243
3.12,0
3.12,0
3.121,0
3.121,230
3.121,286
3.121,267
3.122,256
3.122,241
3.122,241
3.122,238
3.123,233
3.123,230
3.123,222
3.123,215
3.124,209
3.124,240
3.135,0
3.135,0
3.135,0
3.135,0
3.136,0
3.136,0
3.136,0
3.136,0
3.137,0
3.137,0
3.137,0
3.138,0
3.138,0
3.138,0
3.138,0
3.139,0
3.139,0
3.139,0
3.139,0
3.15,229
3.15,32
3.15,0
3.151,0
3.151,0
3.151,0
3.152,0
3.152,0
3.152,0
3.152,0
3.153,0
3.153,0
3.153,0
3.153,0
3.154,0
3.154,0
3.154,0
3.154,0
3.155,0
3.155,0
3.166,237
3.166,240
3.166,240
3.166,240
3.167,240
3.167,240
3.167,243
3.167,245
3.168,240
3.168,240
3.168,240
3.168,239
3.169,240
3.169,237
3.169,240
3.18,0
3.18,0
3.18,0
3.181,173
3.181,290
3.181,261
3.181,240
3.182,248
3.182,250
3.182,233
3.182,238
3.183,230
3.183,226
3.183,222
3.184,211
3.184,234
3.194,0
3.195,0
3.195,0
3.195,0
3.195,0
3.196,0
3.196,0
3.196,0
3.197,0
3.197,0
3.197,0
3.197,0
3.198,0
3.198,0
3.198,0
3.198,0
3.199,0
3.199,0
3.199,0
3.21,235
3.21,190
3.21,0
3.21,0
3.211,0
3.211,0
3.211,0
3.212,0
3.212,0
3.212,0
3.212,0
3.213,0
3.213,0
3.213,0
3.213,0
3.214,0
3.214,0
3.214,0
3.214,0
3.215,0
3.225,235
3.226,242
3.226,240
3.226,241
3.226,241
3.227,241
3.227,240
3.227,244
3.227,243
3.228,242
3.228,241
3.228,240
3.229,240
3.229,240
3.229,240
3.24,0
3.24,0
3.24,0
3.24,259
3.241,206
3.241,269
3.241,257
3.241,251
3.242,250
3.242,240
3.242,236
3.243,233
3.243,226
3.243,226
3.243,213
3.254,0
3.254,0
3.254,0
3.255,0
3.255,0
3.255,0
3.255,0
3.256,0
3.256,0
3.256,0
3.257,0
3.257,0
3.257,0
3.257,0
3.258,0
3.258,0
3.258,0
3.258,0
3.259,0
3.259,0
3.269,240
3.27,234
3.27,0
3.27,0
3.271,0
3.271,0
3.271,0
3.271,0
3.272,0
3.272,0
3.272,0
3.272,0
3.273,0
3.273,0
3.273,0
3.273,0
3.274,0
3.274,0
3.274,0
3.275,0
3.285,227
3.285,238
3.286,240
3.286,240
3.286,240
3.286,241
3.287,241
3.287,240
3.287,242
3.287,240
3.288,240
3.288,235
3.288,240
3.289,240
3.289,238
3.299,0
3.3,0
3.3,0
3.3,20
3.3,256
3.301,257
3.301,267
3.301,254
3.301,246
3.302,240
3.302,231
3.302,233
3.303,227
3.303,227
3.303,218
3.303,218
3.314,0
3.314,0
3.314,0
3.315,0
3.315,0
3.315,0
3.315,0
3.316,0
3.316,0
3.316,0
3.317,0
3.317,0
3.317,0
3.317,0
3.318,0
3.318,0
3.318,0
3.318,0
3.319,0
3.329,240
3.329,247
3.33,98
3.33,0
3.33,0
3.331,0
3.331,0
3.331,0
3.331,0
3.332,0
3.332,0
3.332,0
3.332,0
3.333,0
3.333,0
3.333,0
3.333,0
3.334,0
3.334,0
3.345,236
3.345,240
3.345,238
3.345,241
3.346,240
3.346,240
3.346,240
3.346,241
3.347,240
3.347,241
3.347,241
3.348,240
3.348,240
3.348,239
3.348,240
3.359,0
3.359,0
3.359,0
3.36,0
3.36,0
3.36,238
3.36,176
3.361,240
3.361,256
3.361,252
3.361,248
3.362,243
3.362,242
3.362,237
3.363,230
3.363,226
3.373,0
3.374,0
3.374,0
3.374,0
3.374,0
3.375,0
3.375,0
3.375,0
3.375,0
3.376,0
3.376,0
3.376,0
3.376,0
3.377,0
3.377,0
3.377,0
3.378,0
3.378,0
3.378,0
3.378,0
3.389,239
3.389,247
3.389,208
3.39,0
3.39,0
3.39,0
3.39,0
3.391,0
3.391,0
3.391,0
3.392,0
3.392,0
3.392,0
3.392,0
3.393,0
3.393,0
3.393,0
3.393,0
3.394,0
3.404,230
3.405,240
3.405,238
3.405,240
3.405,237
3.406,240
3.406,240
3.406,240
3.406,240
3.407,240
3.407,238
3.407,239
3.407,239
3.408,240
3.408,240
3.418,0
3.419,0
3.419,0
3.419,0
3.42,0
3.42,0
3.42,297
3.42,279
3.421,259
3.421,255
3.421,247
3.421,240
3.422,239
3.422,234
3.422,225
3.423,224
3.423,222
3.433,0
3.434,0
3.434,0
3.434,0
3.434,0
3.435,0
3.435,0
3.435,0
3.435,0
3.436,0
3.436,0
3.436,0
3.437,0
3.437,0
3.437,0
3.437,0
3.438,0
3.438,0
3.438,0
3.449,242
3.449,241
3.449,240
3.449,80
3.45,0
3.45,0
3.45,0
3.451,0
3.451,0
3.451,0
3.451,0
3.452,0
3.452,0
3.452,0
3.452,0
3.453,0
3.453,0
3.453,0
3.453,0
3.464,235
3.464,237
3.465,240
3.465,237
3.465,235
3.465,235
3.466,240
3.466,240
3.466,240
3.466,237
3.467,240
3.467,239
3.467,237
3.467,262
3.468,239
3.478,0
3.478,0
3.479,0
3.479,0
3.479,0
3.48,0
3.48,103
3.48,289
3.48,277
3.481,258
3.481,253
3.481,245
3.481,235
3.482,234
3.482,230
3.482,225
3.483,222
3.493,0
3.493,0
3.494,0
3.494,0
3.494,0
3.494,0
3.495,0
3.495,0
3.495,0
3.495,0
3.496,0
3.496,0
3.496,0
3.497,0
3.497,0
3.497,0
3.497,0
3.498,0
3.498,0
3.508,240
3.509,252
3.509,256
3.509,213
3.509,0
3.51,0
3.51,0
3.51,0
3.51,0
3.511,0
3.511,0
3.511,0
3.512,0
3.512,0
3.512,0
3.512,0
3.513,0
3.513,0
3.513,0
3.524,228
3.524,235
3.524,239
3.524,230
3.525,239
3.525,240
3.525,240
3.526,239
3.526,237
3.526,240
3.526,283
3.527,242
3.527,237
3.527,239
3.527,226
3.538,0
3.538,0
3.538,0
3.539,0
3.539,0
3.539,0
3.539,0
3.54,205
3.54,289
3.54,271
3.541,256
3.541,251
3.541,244
3.541,237
3.542,234
3.542,229
3.542,231
3.553,0
3.553,0
3.553,0
3.554,0
3.554,0
3.554,0
3.554,0
3.555,0
3.555,0
3.555,0
3.555,0
3.556,0
3.556,0
3.556,0
3.556,0
3.557,0
3.557,0
3.557,0
3.558,0
3.568,240
3.568,241
3.569,243
3.569,243
3.569,176
3.569,0
3.57,0
3.57,0
3.57,0
3.57,0
3.571,0
3.571,0
3.571,0
3.571,0
3.572,0
3.572,0
3.572,0
3.573,0
3.583,229
3.583,232
3.584,237
3.584,239
3.584,236
3.584,233
3.585,240
3.585,234
3.585,240
3.586,235
3.586,240
3.586,239
3.586,240
3.587,240
3.587,238
3.597,0
3.598,0
3.598,0
3.598,0
3.598,0
3.599,0
3.599,0
3.599,0
3.599,49
3.6,250
3.6,281
3.6,266
3.601,255
3.601,245
3.601,240
3.601,239
3.602,229
3.612,0
3.612,0
3.613,0
3.613,0
3.613,0
3.613,0
3.614,0
3.614,0
3.614,0
3.614,0
3.615,0
3.615,0
3.615,0
3.616,0
3.616,0
3.616,0
3.616,0
3.617,0
3.617,0
3.617,0
3.628,244
3.628,245
3.628,254
3.628,250
3.629,240
3.629,97
3.629,0
3.63,0
3.63,0
3.63,0
3.63,0
3.631,0
3.631,0
3.631,0
3.631,0
3.632,0
3.632,0
3.632,0
3.643,234
3.643,241
3.643,240
3.644,241
3.644,238
3.644,239
3.644,245
3.645,240
3.645,241
3.645,242
3.645,248
3.646,245
3.646,242
3.646,245
3.646,247
3.657,0
3.657,0
3.657,0
3.658,0
3.658,0
3.658,0
3.659,0
3.659,0
3.659,0
3.659,128
3.66,299
3.66,278
3.66,266
3.66,256
3.661,246
3.661,239
3.661,240
3.672,0
3.672,0
3.672,0
3.673,0
3.673,0
3.673,0
3.673,0
3.674,0
3.674,0
3.674,0
3.674,0
3.675,0
3.675,0
3.675,0
3.676,0
3.676,0
3.676,0
3.676,0
3.677,0
3.677,0
3.687,244
3.688,252
3.688,248
3.688,250
3.688,253
3.689,176
3.689,0
3.689,0
3.69,0
3.69,0
3.69,0
3.69,0
3.691,0
3.691,0
3.691,0
3.691,0
3.692,0
3.692,0
3.703,215
3.703,238
3.703,239
3.703,239
3.704,239
3.704,240
3.704,240
3.704,240
3.705,239
3.705,241
3.705,241
3.705,242
3.706,241
3.706,253
3.706,239
3.717,0
3.717,0
3.717,0
3.718,0
3.718,0
3.718,0
3.718,0
3.719,0
3.719,0
3.719,65
3.719,266
3.72,284
3.72,267
3.72,254
3.721,249
3.721,246
3.721,236
3.721,238
3.732,0
3.732,0
3.732,0
3.733,0
3.733,0
3.733,0
3.733,0
3.734,0
3.734,0
3.734,0
3.734,0
3.735,0
3.735,0
3.735,0
3.736,0
3.736,0
3.736,0
3.736,0
3.737,0
3.747,243
3.747,254
3.748,252
3.748,249
3.748,256
3.748,242
3.749,16
3.749,0
3.749,0
3.75,0
3.75,0
3.75,0
3.75,0
3.751,0
3.751,0
3.751,0
3.751,0
3.752,0
3.762,213
3.762,237
3.763,238
3.763,240
3.763,241
3.764,239
3.764,240
3.764,239
3.764,240
3.765,243
3.765,242
3.765,241
3.765,240
3.766,241
3.766,245
3.776,0
3.777,0
3.777,0
3.777,0
3.778,0
3.778,0
3.778,0
3.778,0
3.779,0
3.779,0
3.779,197
3.779,301
3.78,272
3.78,269
3.78,258
3.781,249
3.781,243
3.781,240
3.792,0
3.792,0
3.792,0
3.792,0
3.793,0
3.793,0
3.793,0
3.793,0
3.794,0
3.794,0
3.794,0
3.795,0
3.795,0
3.795,0
3.795,0
3.796,0
3.796,0
3.796,0
3.796,0
3.807,243
3.807,249
3.807,253
3.808,257
3.808,253
3.808,253
3.808,168
3.809,0
3.809,0
3.809,0
3.81,0
3.81,0
3.81,0
3.81,0
3.811,0
3.811,0
3.811,0
3.811,0
3.822,210
3.822,223
3.822,235
3.823,238
3.823,240
3.823,240
3.824,233
3.824,238
3.824,276
3.824,240
3.825,242
3.825,240
3.825,240
3.825,239
3.826,240
3.836,0
3.836,0
3.837,0
3.837,0
3.837,0
3.838,0
3.838,0
3.838,0
3.838,0
3.839,0
3.839,78
3.839,262
3.839,283
3.84,256
3.84,254
3.84,256
3.841,236
3.851,0
3.851,0
3.852,0
3.852,0
3.852,0
3.852,0
3.853,0
3.853,0
3.853,0
3.853,0
3.854,0
3.854,0
3.854,0
3.855,0
3.855,0
3.855,0
3.855,0
3.856,0
3.856,0
3.856,0
3.867,244
3.867,251
3.867,256
3.867,265
3.868,250
3.868,247
3.868,190
3.869,0
3.869,0
3.869,0
3.869,0
3.87,0
3.87,0
3.87,0
3.87,0
3.871,0
3.871,0
3.871,0
3.882,213
3.882,215
3.882,235
3.883,237
3.883,235
3.883,240
3.883,240
3.884,235
3.884,238
3.884,241
3.884,240
3.885,237
3.885,241
3.885,238
3.886,240
3.896,0
3.896,0
3.897,0
3.897,0
3.897,0
3.897,0
3.898,0
3.898,0
3.898,0
3.898,0
3.899,64
3.899,295
3.899,288
3.9,273
3.9,263
3.9,242
3.9,237
3.901,240
3.911,0
3.911,0
3.912,0
3.912,0
3.912,0
3.912,0
3.913,0
3.913,0
3.913,0
3.914,0
3.914,0
3.914,0
3.914,0
3.915,0
3.915,0
3.915,0
3.915,0
3.916,0
3.916,0
3.926,244
3.927,251
3.927,252
3.927,249
3.928,251
3.928,246
3.928,242
3.928,0
3.929,0
3.929,0
3.929,0
3.929,0
3.93,0
3.93,0
3.93,0
3.931,0
3.931,0
3.931,0
3.942,215
3.942,215
3.942,239
3.942,240
3.943,238
3.943,240
3.943,240
3.943,237
3.944,242
3.944,240
3.944,240
3.944,242
3.945,243
3.945,243
3.945,240
3.956,0
3.956,0
3.956,0
3.957,0
3.957,0
3.957,0
3.957,0
3.958,0
3.958,0
3.958,0
3.959,49
3.959,244
3.959,293
3.959,262
3.96,240
3.96,253
3.96,252
3.96,233
3.971,0
3.971,0
3.971,0
3.972,0
3.972,0
3.972,0
3.973,0
3.973,0
3.973,0
3.973,0
3.974,0
3.974,0
3.974,0
3.974,0
3.975,0
3.975,0
3.975,0
3.975,0
3.976,0
3.986,240
3.986,256
3.987,251
3.987,250
3.987,253
3.988,248
3.988,241
3.988,154
3.988,0
3.989,0
3.989,0
3.989,0
3.989,0
3.99,0
3.99,0
3.99,0
3.991,0
4.001,221
4.001,223
4.001,219
4.002,220
4.002,238
4.002,240
4.003,239
4.003,240
4.003,238
4.003,237
4.004,240
4.004,235
4.004,240
4.004,240
4.005,237
4.015,0
4.015,0
4.016,0
4.016,0
4.016,0
4.017,0
4.017,0
4.017,0
4.017,0
4.018,0
4.018,0
4.018,0
4.018,64
4.019,288
4.019,298
4.019,272
4.019,257
4.02,247
4.03,0
4.031,0
4.031,0
4.031,0
4.031,0
4.032,0
4.032,0
4.032,0
4.032,0
4.033,0
4.033,0
4.033,0
4.034,0
4.034,0
4.034,0
4.034,0
4.035,0
4.035,0
4.035,0
4.035,0
4.046,253
4.046,256
4.046,251
4.047,253
4.047,256
4.047,252
4.048,255
4.048,244
4.048,14
4.048,0
4.049,0
4.049,0
4.049,0
4.049,0
4.05,0
4.05,0
4.05,0
4.061,226
4.061,225
4.061,217
4.061,219
4.062,238
4.062,239
4.062,237
4.063,240
4.063,236
4.063,235
4.063,239
4.064,240
4.064,239
4.064,235
4.064,240
4.075,0
4.075,0
4.075,0
4.076,0
4.076,0
4.076,0
4.077,0
4.077,0
4.077,0
4.077,0
4.078,0
4.078,0
4.078,0
4.078,208
4.079,303
4.079,272
4.079,261
4.079,256
4.09,0
4.09,0
4.09,0
4.091,0
4.091,0
4.091,0
4.092,0
4.092,0
4.092,0
4.092,0
4.093,0
4.093,0
4.093,0
4.093,0
4.094,0
4.094,0
4.094,0
4.095,0
4.095,0
4.095,0
4.106,242
4.106,253
4.106,249
4.106,250
4.107,253
4.107,256
4.107,253
4.107,246
4.108,222
4.108,0
4.108,0
4.109,0
4.109,0
4.109,0
4.109,0
4.11,0
4.11,0
4.12,221
4.121,223
4.121,217
4.121,215
4.121,221
4.122,235
4.122,233
4.122,231
4.123,237
4.123,238
4.123,238
4.123,236
4.124,239
4.124,235
4.124,235
4.135,0
4.135,0
4.135,0
4.135,0
4.136,0
4.136,0
4.136,0
4.137,0
4.137,0
4.137,0
4.137,0
4.138,0
4.138,0
4.138,9
4.138,236
4.139,292
4.139,272
4.139,261
4.139,255
4.15,0
4.15,0
4.15,0
4.151,0
4.151,0
4.151,0
4.152,0
4.152,0
4.152,0
4.152,0
4.153,0
4.153,0
4.153,0
4.153,0
4.154,0
4.154,0
4.154,0
4.155,0
4.155,0
4.165,240
4.166,245
4.166,245
4.166,246
4.166,253
4.167,244
4.167,250
4.167,243
4.167,247
4.168,101
4.168,0
4.168,0
4.169,0
4.169,0
4.169,0
4.169,0
4.17,0
4.18,221
4.18,226
4.181,222
4.181,216
4.181,208
4.181,227
4.182,235
4.182,239
4.182,235
4.182,239
4.183,238
4.183,235
4.183,234
4.184,237
4.184,237
4.194,0
4.195,0
4.195,0
4.195,0
4.195,0
4.196,0
4.196,0
4.196,0
4.196,0
4.197,0
4.197,0
4.197,0
4.198,0
4.198,0
4.198,104
4.198,306
4.199,287
4.199,272
4.209,0
4.21,0
4.21,0
4.21,0
4.21,0
4.211,0
4.211,0
4.211,0
4.212,0
4.212,0
4.212,0
4.212,0
4.213,0
4.213,0
4.213,0
4.213,0
4.214,0
4.214,0
4.214,0
4.214,0
4.225,247
4.225,251
4.226,255
4.226,251
4.226,252
4.226,247
4.227,247
4.227,249
4.227,244
4.227,208
4.228,0
4.228,0
4.228,0
4.229,0
4.229,0
4.229,0
4.229,0
4.24,225
4.24,229
4.24,224
4.241,222
4.241,215
4.241,211
4.241,234
4.242,231
4.242,238
4.242,235
4.242,230
4.243,236
4.243,229
4.243,237
4.244,237
4.254,0
4.254,0
4.255,0
4.255,0
4.255,0
4.255,0
4.256,0
4.256,0
4.256,0
4.257,0
4.257,0
4.257,0
4.257,0
4.258,0
4.258,57
4.258,267
4.258,288
4.259,272
4.259,257
4.269,0
4.27,0
4.27,0
4.27,0
4.27,0
4.271,0
4.271,0
4.271,0
4.272,0
4.272,0
4.272,0
4.272,0
4.273,0
4.273,0
4.273,0
4.273,0
4.274,0
4.274,0
4.274,0
4.285,240
4.285,252
4.285,251
4.286,246
4.286,249
4.286,250
4.286,243
4.287,251
4.287,235
4.287,240
4.287,97
4.288,0
4.288,0
4.288,0
4.288,0
4.289,0
4.289,0
4.3,227
4.3,234
4.3,224
4.3,220
4.301,214
4.301,211
4.301,235
4.301,236
4.302,234
4.302,231
4.302,232
4.303,238
4.303,224
4.303,231
4.303,235
4.314,0
4.314,0
4.314,0
4.315,0
4.315,0
4.315,0
4.315,0
4.316,0
4.316,0
4.316,0
4.316,0
4.317,0
4.317,0
4.317,0
4.318,0
4.318,125
4.318,298
4.318,278
4.329,0
4.329,0
4.329,0
4.33,0
4.33,0
4.33,0
4.33,0
4.331,0
4.331,0
4.331,0
4.332,0
4.332,0
4.332,0
4.332,0
4.333,0
4.333,0
4.333,0
4.333,0
4.334,0
4.334,0
4.344,245
4.345,250
4.345,251
4.345,250
4.346,254
4.346,250
4.346,256
4.346,249
4.347,250
4.347,242
4.347,220
4.347,0
4.348,0
4.348,0
4.348,0
4.348,0
4.349,0
4.359,224
4.359,234
4.36,221
4.36,221
4.36,218
4.361,215
4.361,209
4.361,230
4.361,230
4.362,231
4.362,231
4.362,234
4.362,230
4.363,221
4.363,231
4.373,0
4.374,0
4.374,0
4.374,0
4.374,0
4.375,0
4.375,0
4.375,0
4.376,0
4.376,0
4.376,0
4.376,0
4.377,0
4.377,0
4.377,0
4.377,0
4.378,195
4.378,300
4.378,278
4.389,0
4.389,0
4.389,0
4.39,0
4.39,0
4.39,0
4.39,0
4.391,0
4.391,0
4.391,0
4.391,0
4.392,0
4.392,0
4.392,0
4.392,0
4.393,0
4.393,0
4.393,0
4.394,0
4.404,240
4.404,247
4.405,249
4.405,245
4.405,243
4.405,244
4.406,253
4.406,245
4.406,251
4.407,245
4.407,247
4.407,163
4.407,0
4.408,0
4.408,0
4.408,0
4.419,230
4.419,237
4.419,232
4.419,233
4.42,229
4.42,223
4.42,214
4.42,211
4.421,208
4.421,237
4.421,239
4.422,235
4.422,230
4.422,230
4.422,235
4.433,0
4.433,0
4.433,0
4.434,0
4.434,0
4.434,0
4.434,0
4.435,0
4.435,0
4.435,0
4.436,0
4.436,0
4.436,0
4.436,0
4.437,0
4.437,0
4.437,0
4.437,17
4.438,236
4.448,0
4.448,0
4.449,0
4.449,0
4.449,0
4.45,0
4.45,0
4.45,0
4.45,0
4.451,0
4.451,0
4.451,0
4.451,0
4.452,0
4.452,0
4.452,0
4.452,0
4.453,0
4.453,0
4.453,0
4.464,245
4.464,256
4.464,257
4.465,255
4.465,253
4.465,252
4.465,254
4.466,250
4.466,251
4.466,254
4.466,250
4.467,235
4.467,43
4.467,0
4.468,0
4.468,0
4.478,247
4.479,240
4.479,237
4.479,234
4.479,229
4.48,223
4.48,217
4.48,213
4.48,210
4.481,231
4.481,231
4.481,234
4.482,234
4.482,234
4.482,230
4.493,0
4.493,0
4.493,0
4.493,0
4.494,0
4.494,0
4.494,0
4.494,0
4.495,0
4.495,0
4.495,0
4.496,0
4.496,0
4.496,0
4.496,0
4.497,0
4.497,0
4.497,0
4.497,85
4.498,280
4.508,0
4.508,0
4.509,0
4.509,0
4.509,0
4.509,0
4.51,0
4.51,0
4.51,0
4.511,0
4.511,0
4.511,0
4.511,0
4.512,0
4.512,0
4.512,0
4.512,0
4.513,0
4.513,0
4.523,240
4.524,246
4.524,250
4.524,251
4.525,250
4.525,244
4.525,250
4.525,246
4.526,245
4.526,248
4.526,243
4.526,247
4.527,209
4.527,0
4.527,0
4.527,0
4.538,249
4.538,237
4.539,239
4.539,232
4.539,228
4.539,223
4.54,218
4.54,215
4.54,214
4.54,209
4.541,230
4.541,229
4.541,228
4.541,229
4.542,227
4.552,0
4.553,0
4.553,0
4.553,0
4.553,0
4.554,0
4.554,0
4.554,0
4.554,0
4.555,0
4.555,0
4.555,0
4.556,0
4.556,0
4.556,0
4.556,0
4.557,0
4.557,0
4.557,49
4.557,224
4.568,0
4.568,0
4.568,0
4.569,0
4.569,0
4.569,0
4.569,0
4.57,0
4.57,0
4.57,0
4.571,0
4.571,0
4.571,0
4.571,0
4.572,0
4.572,0
4.572,0
4.572,0
4.573,0
4.583,240
4.583,254
4.584,255
4.584,254
4.584,247
4.585,251
4.585,251
4.585,242
4.585,245
4.586,247
4.586,253
4.586,246
4.586,241
4.587,107
4.587,0
4.597,261
4.598,269
4.598,251
4.598,240
4.598,240
4.599,223
4.599,223
4.599,219
4.6,214
4.6,214
4.6,208
4.6,212
4.601,229
4.601,225
4.601,231
4.612,0
4.612,0
4.612,0
4.612,0
4.613,0
4.613,0
4.613,0
4.614,0
4.614,0
4.614,0
4.614,0
4.615,0
4.615,0
4.615,0
4.615,0
4.616,0
4.616,0
4.616,0
4.616,0
4.617,0
4.627,0
4.628,0
4.628,0
4.628,0
4.628,0
4.629,0
4.629,0
4.629,0
4.629,0
4.63,0
4.63,0
4.63,0
4.63,0
4.631,0
4.631,0
4.631,0
4.632,0
4.632,0
4.632,0
4.632,0
4.643,240
4.643,247
4.643,250
4.644,254
4.644,256
4.644,254
4.645,253
4.645,243
4.645,247
4.645,245
4.646,247
4.646,247
4.646,249
4.646,176
4.647,0
4.657,272
4.657,270
4.658,252
4.658,243
4.658,236
4.659,225
4.659,222
4.659,176
4.659,214
4.66,209
4.66,205
4.66,206
4.66,227
4.661,229
4.661,230
4.671,0
4.672,0
4.672,0
4.672,0
4.673,0
4.673,0
4.673,0
4.673,0
4.674,0
4.674,0
4.674,0
4.674,0
4.675,0
4.675,0
4.675,0
4.675,0
4.676,0
4.676,0
4.676,0
4.677,0
4.687,0
4.687,0
4.688,0
4.688,0
4.688,0
4.688,0
4.689,0
4.689,0
4.689,0
4.689,0
4.69,0
4.69,0
4.69,0
4.691,0
4.691,0
4.691,0
4.691,0
4.692,0
4.692,0
4.692,0
4.703,246
4.703,253
4.703,251
4.703,246
4.704,250
4.704,255
4.704,249
4.705,256
4.705,250
4.705,250
4.705,253
4.706,247
4.706,243
4.706,240
4.706,84
4.717,121
4.717,270
4.717,269
4.718,258
4.718,242
4.718,237
4.719,235
4.719,226
4.719,219
4.719,216
4.72,212
4.72,211
4.72,234
4.72,237
4.721,232
4.731,0
4.731,0
4.732,0
4.732,0
4.732,0
4.733,0
4.733,0
4.733,0
4.733,0
4.734,0
4.734,0
4.734,0
4.734,0
4.735,0
4.735,0
4.735,0
4.735,0
4.736,0
4.736,0
4.736,0
4.747,0
4.747,0
4.747,0
4.748,0
4.748,0
4.748,0
4.748,0
4.749,0
4.749,0
4.749,0
4.749,0
4.75,0
4.75,0
4.75,0
4.751,0
4.751,0
4.751,0
4.751,0
4.752,0
4.752,0
4.762,243
4.763,251
4.763,250
4.763,256
4.763,256
4.764,253
4.764,229
4.764,247
4.765,246
4.765,253
4.765,250
4.765,250
4.766,246
4.766,250
4.766,234
4.777,0
4.777,177
4.777,288
4.777,272
4.778,257
4.778,247
4.778,240
4.778,233
4.779,231
4.779,224
4.779,225
4.78,219
4.78,210
4.78,237
4.78,239
4.791,0
4.791,0
4.791,0
4.792,0
4.792,0
4.792,0
4.792,0
4.793,0
4.793,0
4.793,0
4.793,0
4.794,0
4.794,0
4.794,0
4.795,0
4.795,0
4.795,0
4.795,0
4.796,0
4.796,0
4.806,0
4.807,0
4.807,0
4.807,0
4.807,0
4.808,0
4.808,0
4.808,0
4.809,0
4.809,0
4.809,0
4.809,0
4.81,0
4.81,0
4.81,0
4.81,0
4.811,0
4.811,0
4.811,0
4.811,0
4.822,245
4.822,253
4.823,251
4.823,253
4.823,250
4.823,247
4.824,251
4.824,249
4.824,249
4.824,249
4.825,249
4.825,252
4.825,242
4.826,245
4.826,241
4.836,0
4.836,50
4.837,228
4.837,285
4.837,267
4.838,253
4.838,247
4.838,240
4.838,233
4.839,237
4.839,229
4.839,223
4.839,221
4.84,214
4.84,238
4.851,0
4.851,0
4.851,0
4.851,0
4.852,0
4.852,0
4.852,0
4.852,0
4.853,0
4.853,0
4.853,0
4.853,0
4.854,0
4.854,0
4.854,0
4.855,0
4.855,0
4.855,0
4.855,0
4.856,0
4.866,0
4.866,0
4.867,0
4.867,0
4.867,0
4.867,0
4.868,0
4.868,0
4.868,0
4.869,0
4.869,0
4.869,0
4.869,0
4.87,0
4.87,0
4.87,0
4.87,0
4.871,0
4.871,0
4.871,0
4.882,241
4.882,252
4.882,252
4.883,254
4.883,252
4.883,253
4.883,257
4.884,244
4.884,243
4.884,246
4.884,254
4.885,247
4.885,250
4.885,252
4.885,242
4.896,0
4.896,0
4.897,216
4.897,278
4.897,272
4.897,256
4.898,247
4.898,240
4.898,240
4.898,235
4.899,231
4.899,224
4.899,223
4.9,216
4.9,238
4.9,236
4.911,0
4.911,0
4.911,0
4.911,0
4.912,0
4.912,0
4.912,0
4.912,0
4.913,0
4.913,0
4.913,0
4.913,0
4.914,0
4.914,0
4.914,0
4.915,0
4.915,0
4.915,0
4.915,0
4.926,86
4.926,0
4.926,0
4.927,0
4.927,0
4.927,0
4.927,0
4.928,0
4.928,0
4.928,0
4.929,0
4.929,0
4.929,0
4.929,0
4.93,0
4.93,0
4.93,0
4.93,0
4.931,0
4.931,0
4.941,237
4.942,242
4.942,247
4.942,246
4.943,244
4.943,245
4.943,247
4.943,252
4.944,242
4.944,250
4.944,241
4.944,246
4.945,247
4.945,245
4.945,241
4.956,0
4.956,0
4.956,155
4.956,238
4.957,244
4.957,233
4.957,237
4.958,226
4.958,240
4.958,208
4.958,222
4.959,228
4.959,223
4.959,214
4.959,213
4.97,0
4.97,0
4.97,0
4.971,0
4.971,0
4.971,0
4.972,0
4.972,0
4.972,0
4.972,0
4.973,0
4.973,0
4.973,0
4.973,0
4.974,0
4.974,0
4.974,0
4.975,0
4.975,0
4.975,0
4.986,208
4.986,0
4.986,0
4.986,0
4.987,0
4.987,0
4.987,0
4.987,0
4.988,0
4.988,0
4.988,0
4.989,0
4.989,0
4.989,0
4.989,0
4.99,0
4.99,0
4.99,0
4.99,0
4.991,0
5.001,240
5.001,253
5.002,245
5.002,240
5.002,245
5.003,250
5.003,244
5.003,247
5.003,249
5.004,244
5.004,240
5.004,241
5.004,246
5.005,243
5.005,243
5.015,0
5.016,0
5.016,1
5.016,222
5.016,241
5.017,240
5.017,253
5.017,255
5.018,241
5.018,241
5.018,234
5.018,233
5.019,227
5.019,221
5.019,225
5.019,238
5.03,0
5.03,0
5.03,0
5.031,0
5.031,0
5.031,0
5.031,0
5.032,0
5.032,0
5.032,0
5.033,0
5.033,0
5.033,0
5.033,0
5.034,0
5.034,0
5.034,0
5.034,0
5.035,0
5.045,243
5.045,224
5.046,0
5.046,0
5.046,0
5.047,0
5.047,0
5.047,0
5.047,0
5.048,0
5.048,0
5.048,0
5.048,0
5.049,0
5.049,0
5.049,0
5.049,0
5.05,0
5.05,0
5.06,234
5.061,240
5.061,240
5.061,238
5.062,240
5.062,243
5.062,244
5.062,240
5.063,241
5.063,244
5.063,239
5.063,239
5.064,240
5.064,240
5.064,241
5.075,0
5.075,0
5.075,0
5.076,0
5.076,62
5.076,270
5.076,257
5.077,253
5.077,235
5.077,242
5.077,246
5.078,240
5.078,237
5.078,231
5.079,226
5.079,223
5.089,0
5.09,0
5.09,0
5.09,0
5.09,0
5.091,0
5.091,0
5.091,0
5.091,0
5.092,0
5.092,0
5.092,0
5.092,0
5.093,0
5.093,0
5.093,0
5.094,0
5.094,0
5.094,0
5.094,0
5.105,240
5.105,247
5.105,241
5.106,0
5.106,0
5.106,0
5.106,0
5.107,0
5.107,0
5.107,0
5.107,0
5.108,0
5.108,0
5.108,0
5.109,0
5.109,0
5.109,0
5.109,0
5.11,0
5.12,236
5.12,242
5.121,240
5.121,237
5.121,239
5.121,242
5.122,241
5.122,240
5.122,242
5.123,240
5.123,241
5.123,241
5.123,243
5.124,240
5.124,240
5.134,0
5.135,0
5.135,0
5.135,0
5.135,0
5.136,0
5.136,215
5.136,274
5.137,270
5.137,254
5.137,254
5.137,240
5.138,240
5.138,237
5.138,231
5.138,226
5.149,0
5.149,0
5.149,0
5.15,0
5.15,0
5.15,0
5.151,0
5.151,0
5.151,0
5.151,0
5.152,0
5.152,0
5.152,0
5.152,0
5.153,0
5.153,0
5.153,0
5.154,0
5.154,0
5.154,0
5.165,243
5.165,252
5.165,241
5.165,58
5.166,0
5.166,0
5.166,0
5.166,0
5.167,0
5.167,0
5.167,0
5.168,0
5.168,0
5.168,0
5.168,0
5.169,0
5.169,0
5.169,0
5.169,0
5.18,235
5.18,240
5.18,240
5.181,241
5.181,240
5.181,243
5.181,244
5.182,242
5.182,245
5.182,245
5.183,242
5.183,242
5.183,240
5.183,239
5.184,240
5.194,0
5.194,0
5.195,0
5.195,0
5.195,0
5.195,0
5.196,109
5.196,292
5.196,273
5.197,267
5.197,256
5.197,244
5.197,241
5.198,231
5.198,238
5.198,230
5.198,222
5.209,0
5.209,0
5.209,0
5.21,0
5.21,0
5.21,0
5.21,0
5.211,0
5.211,0
5.211,0
5.212,0
5.212,0
5.212,0
5.212,0
5.213,0
5.213,0
5.213,0
5.213,0
5.214,0
5.224,246
5.224,252
5.225,251
5.225,209
5.225,0
5.226,0
5.226,0
5.226,0
5.226,0
5.227,0
5.227,0
5.227,0
5.227,0
5.228,0
5.228,0
5.228,0
5.229,0
5.229,0
5.229,0
5.24,240
5.24,241
5.24,240
5.24,238
5.241,242
5.241,240
5.241,242
5.241,240
5.242,240
5.242,245
5.242,238
5.243,240
5.243,243
5.243,239
5.243,243
5.254,0
5.254,0
5.254,0
5.255,0
5.255,0
5.255,0
5.255,17
5.256,234
5.256,288
5.256,271
5.257,256
5.257,250
5.257,240
5.257,240
5.258,231
5.258,235
5.268,0
5.269,0
5.269,0
5.269,0
5.269,0
5.27,0
5.27,0
5.27,0
5.271,0
5.271,0
5.271,0
5.271,0
5.272,0
5.272,0
5.272,0
5.272,0
5.273,0
5.273,0
5.273,0
5.274,0
5.284,244
5.284,249
5.285,252
5.285,245
5.285,16
5.285,0
5.286,0
5.286,0
5.286,0
5.286,0
5.287,0
5.287,0
5.287,0
5.288,0
5.288,0
5.288,0
5.288,0
5.289,0
5.289,0
5.299,238
5.3,240
5.3,240
5.3,241
5.3,240
5.301,242
5.301,241
5.301,247
5.301,240
5.302,242
5.302,243
5.302,243
5.303,242
5.303,240
5.303,240
5.314,0
5.314,0
5.314,0
5.314,0
5.315,0
5.315,0
5.315,1
5.316,206
5.316,287
5.316,269
5.316,261
5.317,254
5.317,243
5.317,240
5.317,237
5.318,231
5.318,223
5.328,0
5.329,0
5.329,0
5.329,0
5.33,0
5.33,0
5.33,0
5.33,0
5.331,0
5.331,0
5.331,0
5.331,0
5.332,0
5.332,0
5.332,0
5.332,0
5.333,0
5.333,0
5.333,0
5.344,243
5.344,251
5.344,251
5.345,249
5.345,165
5.345,0
5.345,0
5.346,0
5.346,0
5.346,0
5.346,0
5.347,0
5.347,0
5.347,0
5.348,0
5.348,0
5.348,0
5.348,0
5.349,0
5.359,235
5.359,240
5.36,240
5.36,238
5.36,240
5.36,240
5.361,239
5.361,237
5.361,240
5.361,241
5.362,242
5.362,251
5.362,241
5.363,240
5.363,241
5.373,0
5.374,0
5.374,0
5.374,0
5.374,0
5.375,0
5.375,0
5.375,28
5.375,233
5.376,294
5.376,272
5.376,256
5.376,218
5.377,240
5.377,237
5.377,233
5.388,0
5.388,0
5.388,0
5.389,0
5.389,0
5.389,0
5.389,0
5.39,0
5.39,0
5.39,0
5.39,0
5.391,0
5.391,0
5.391,0
5.392,0
5.392,0
5.392,0
5.392,0
5.393,0
5.393,0
5.403,240
5.404,254
5.404,254
5.404,247
5.404,251
5.405,106
5.405,0
5.405,0
5.406,0
5.406,0
5.406,0
5.406,0
5.407,0
5.407,0
5.407,0
5.407,0
5.408,0
5.408,0
5.418,223
5.419,242
5.419,240
5.419,246
5.419,243
5.42,241
5.42,240
5.42,239
5.421,240
5.421,247
5.421,240
5.421,243
5.422,249
5.422,241
5.422,240
5.433,0
5.433,0
5.433,0
5.433,0
5.434,0
5.434,0
5.434,0
5.435,0
5.435,0
5.435,50
5.435,259
5.436,278
5.436,272
5.436,257
5.436,252
5.437,243
5.437,237
5.447,0
5.448,0
5.448,0
5.448,0
5.449,0
5.449,0
5.449,0
5.449,0
5.45,0
5.45,0
5.45,0
5.45,0
5.451,0
5.451,0
5.451,0
5.452,0
5.452,0
5.452,0
5.452,0
5.453,0
5.463,242
5.463,257
5.464,250
5.464,252
5.464,250
5.464,240
5.465,0
5.465,0
5.465,0
5.466,0
5.466,0
5.466,0
5.466,0
5.467,0
5.467,0
5.467,0
5.467,0
5.468,0
5.478,211
5.478,239
5.479,236
5.479,240
5.479,240
5.48,234
5.48,236
5.48,235
5.48,238
5.481,272
5.481,240
5.481,240
5.481,256
5.482,240
5.482,240
5.492,0
5.493,0
5.493,0
5.493,0
5.494,0
5.494,0
5.494,0
5.494,0
5.495,0
5.495,16
5.495,227
5.495,293
5.496,269
5.496,257
5.496,245
5.496,243
5.497,240
5.497,237
5.508,0
5.508,0
5.508,0
5.508,0
5.509,0
5.509,0
5.509,0
5.509,0
5.51,0
5.51,0
5.51,0
5.51,0
5.511,0
5.511,0
5.511,0
5.512,0
5.512,0
5.512,0
5.512,0
5.523,243
5.523,244
5.523,247
5.524,251
5.524,249
5.524,242
5.524,144
5.525,0
5.525,0
5.525,0
5.526,0
5.526,0
5.526,0
5.526,0
5.527,0
5.527,0
5.527,0
5.527,0
5.538,208
5.538,224
5.538,237
5.539,232
5.539,240
5.539,238
5.54,238
5.54,240
5.54,240
5.54,240
5.541,240
5.541,238
5.541,240
5.541,248
5.542,242
5.552,0
5.552,0
5.553,0
5.553,0
5.553,0
5.554,0
5.554,0
5.554,0
5.554,0
5.555,0
5.555,154
5.555,295
5.555,283
5.556,262
5.556,242
5.556,249
5.556,243
5.567,0
5.567,0
5.568,0
5.568,0
5.568,0
5.568,0
5.569,0
5.569,0
5.569,0
5.569,0
5.57,0
5.57,0
5.57,0
5.57,0
5.571,0
5.571,0
5.571,0
5.572,0
5.572,0
5.572,0
5.583,246
5.583,253
5.583,253
5.583,249
5.584,256
5.584,245
5.584,175
5.585,0
5.585,0
5.585,0
5.585,0
5.586,0
5.586,0
5.586,0
5.586,0
5.587,0
5.587,0
5.587,0
5.598,210
5.598,220
5.598,237
5.598,245
5.599,239
5.599,238
5.599,237
5.6,239
5.6,234
5.6,238
5.6,240
5.601,239
5.601,243
5.601,240
5.601,240
5.612,0
5.612,0
5.613,0
5.613,0
5.613,0
5.613,0
5.614,0
5.614,0
5.614,0
5.614,0
5.615,75
5.615,237
5.615,218
5.615,250
5.616,252
5.616,248
5.616,241
5.617,235
5.627,0
5.627,0
5.628,0
5.628,0
5.628,0
5.628,0
5.629,0
5.629,0
5.629,0
5.629,0
5.63,0
5.63,0
5.63,0
5.631,0
5.631,0
5.631,0
5.631,0
5.632,0
5.632,0
5.642,245
5.643,251
5.643,249
5.643,251
5.643,252
5.644,251
5.644,245
5.644,23
5.645,0
5.645,0
5.645,0
5.645,0
5.646,0
5.646,0
5.646,0
5.646,0
5.647,0
5.647,0
5.657,210
5.658,211
5.658,247
5.658,240
5.659,231
5.659,235
5.659,240
5.659,237
5.66,240
5.66,240
5.66,244
5.66,241
5.661,240
5.661,242
5.661,240
5.672,0
5.672,0
5.672,0
5.672,0
5.673,0
5.673,0
5.673,0
5.674,0
5.674,0
5.674,0
5.674,0
5.675,226
5.675,275
5.675,272
5.675,270
5.676,263
5.676,247
5.686,0
5.687,0
5.687,0
5.687,0
5.688,0
5.688,0
5.688,0
5.688,0
5.689,0
5.689,0
5.689,0
5.689,0
5.69,0
5.69,0
5.69,0
5.69,0
5.691,0
5.691,0
5.691,0
5.692,0
5.702,251
5.702,256
5.703,253
5.703,253
5.703,258
5.703,256
5.704,242
5.704,177
5.704,0
5.704,0
5.705,0
5.705,0
5.705,0
5.706,0
5.706,0
5.706,0
5.706,0
5.707,0
5.717,214
5.717,213
5.718,223
5.718,236
5.718,235
5.719,237
5.719,239
5.719,240
5.719,237
5.72,239
5.72,239
5.72,245
5.72,239
5.721,241
5.721,245
5.731,0
5.732,0
5.732,0
5.732,0
5.733,0
5.733,0
5.733,0
5.733,0
5.734,0
5.734,0
5.734,0
5.734,109
5.735,229
5.735,233
5.735,251
5.735,256
5.736,245
5.736,240
5.747,0
5.747,0
5.747,0
5.747,0
5.748,0
5.748,0
5.748,0
5.748,0
5.749,0
5.749,0
5.749,0
5.749,0
5.75,0
5.75,0
5.75,0
5.751,0
5.751,0
5.751,0
5.751,0
5.762,241
5.762,255
5.762,249
5.763,251
5.763,251
5.763,241
5.763,245
5.764,203
5.764,0
5.764,0
5.765,0
5.765,0
5.765,0
5.765,0
5.766,0
5.766,0
5.766,0
5.766,0
5.777,218
5.777,217
5.777,214
5.778,240
5.778,236
5.778,238
5.779,238
5.779,236
5.779,240
5.779,235
5.78,238
5.78,240
5.78,208
5.78,240
5.781,241
5.791,0
5.791,0
5.792,0
5.792,0
5.792,0
5.793,0
5.793,0
5.793,0
5.793,0
5.794,0
5.794,0
5.794,81
5.794,281
5.795,288
5.795,257
5.795,253
5.796,245
5.806,0
5.806,0
5.807,0
5.807,0
5.807,0
5.807,0
5.808,0
5.808,0
5.808,0
5.808,0
5.809,0
5.809,0
5.809,0
5.809,0
5.81,0
5.81,0
5.81,0
5.811,0
5.811,0
5.811,0
5.822,243
5.822,253
5.822,253
5.822,254
5.823,257
5.823,251
5.823,250
5.823,245
5.824,112
5.824,0
5.824,0
5.825,0
5.825,0
5.825,0
5.825,0
5.826,0
5.826,0
5.836,221
5.837,223
5.837,218
5.837,214
5.838,236
5.838,237
5.838,237
5.838,239
5.839,238
5.839,236
5.839,236
5.839,235
5.84,240
5.84,238
5.84,240
5.851,0
5.851,0
5.851,0
5.851,0
5.852,0
5.852,0
5.852,0
5.853,0
5.853,0
5.853,0
5.853,0
5.854,0
5.854,0
5.854,152
5.854,299
5.855,282
5.855,268
5.855,253
5.856,243
5.866,0
5.866,0
5.867,0
5.867,0
5.867,0
5.867,0
5.868,0
5.868,0
5.868,0
5.868,0
5.869,0
5.869,0
5.869,0
5.869,0
5.87,0
5.87,0
5.87,0
5.871,0
5.871,0
5.881,250
5.882,253
5.882,251
5.882,256
5.882,256
5.883,250
5.883,253
5.883,250
5.883,246
5.884,0
5.884,0
5.884,0
5.885,0
5.885,0
5.885,0
5.885,0
5.886,0
5.896,221
5.896,225
5.897,217
5.897,215
5.897,213
5.897,236
5.898,233
5.898,237
5.898,237
5.898,239
5.899,235
5.899,237
5.899,236
5.9,237
5.9,236
5.91,0
5.911,0
5.911,0
5.911,0
5.911,0
5.912,0
5.912,0
5.912,0
5.912,0
5.913,0
5.913,0
5.913,0
5.913,0
5.914,0
5.914,146
5.914,299
5.915,278
5.915,265
5.925,0
5.926,0
5.926,0
5.926,0
5.926,0
5.927,0
5.927,0
5.927,0
5.927,0
5.928,0
5.928,0
5.928,0
5.929,0
5.929,0
5.929,0
5.929,0
5.93,0
5.93,0
5.93,0
5.93,0
5.941,246
5.941,253
5.941,237
5.942,253
5.942,252
5.942,246
5.943,246
5.943,251
5.943,248
5.943,177
5.944,0
5.944,0
5.944,0
5.944,0
5.945,0
5.945,0
5.945,0
5.956,226
5.956,226
5.956,224
5.957,223
5.957,222
5.957,219
5.957,239
5.958,237
5.958,240
5.958,238
5.958,235
5.959,240
5.959,237
5.959,237
5.96,236
5.97,0
5.97,0
5.971,0
5.971,0
5.971,0
5.971,0
5.972,0
5.972,0
5.972,0
5.972,0
5.973,0
5.973,0
5.973,0
5.974,0
5.974,80
5.974,299
5.974,286
5.975,272
5.975,256
5.985,0
5.986,0
5.986,0
5.986,0
5.986,0
5.987,0
5.987,0
5.987,0
5.988,0
5.988,0
5.988,0
5.988,0
5.989,0
5.989,0
5.989,0
5.989,0
5.99,0
5.99,0
5.99,0
6.001,244
6.001,256
6.001,253
6.002,255
6.002,252
6.002,247
6.002,252
6.003,253
6.003,246
6.003,237
6.003,0
6.004,0
6.004,0
6.004,0
6.004,0
6.005,0
6.005,0
6.015,227
6.016,229
6.016,227
6.016,221
6.017,212
6.017,211
6.017,235
6.017,236
6.018,231
6.018,234
6.018,237
6.018,233
6.019,235
6.019,237
6.019,240
6.03,0
6.03,0
6.03,0
6.031,0
6.031,0
6.031,0
6.031,0
6.032,0
6.032,0
6.032,0
6.032,0
6.033,0
6.033,0
6.033,0
6.033,0
6.034,144
6.034,335
6.034,276
6.045,0
6.045,0
6.045,0
6.046,0
6.046,0
6.046,0
6.046,0
6.047,0
6.047,0
6.047,0
6.047,0
6.048,0
6.048,0
6.048,0
6.049,0
6.049,0
6.049,0
6.049,0
6.05,0
6.05,0
6.06,245
6.061,254
6.061,256
6.061,255
6.061,255
6.062,255
6.062,254
6.062,251
6.063,255
6.063,247
6.063,179
6.063,0
6.064,0
6.064,0
6.064,0
6.064,0
6.065,0
6.075,226
6.075,231
6.076,229
6.076,225
6.076,221
6.076,215
6.077,211
6.077,237
6.077,234
6.078,234
6.078,239
6.078,230
6.078,234
6.079,235
6.079,238
6.089,0
6.09,0
6.09,0
6.09,0
6.09,0
6.091,0
6.091,0
6.091,0
6.092,0
6.092,0
6.092,0
6.092,0
6.093,0
6.093,0
6.093,0
6.093,0
6.094,208
6.094,294
6.094,272
6.105,0
6.105,0
6.105,0
6.105,0
6.106,0
6.106,0
6.106,0
6.107,0
6.107,0
6.107,0
6.107,0
6.108,0
6.108,0
6.108,0
6.108,0
6.109,0
6.109,0
6.109,0
6.11,0
6.12,247
6.12,251
6.12,260
6.121,257
6.121,256
6.121,260
6.122,256
6.122,250
6.122,256
6.122,255
6.123,254
6.123,176
6.123,0
6.123,0
6.124,0
6.124,0
6.134,229
6.135,208
6.135,240
6.135,237
6.136,228
6.136,209
6.136,221
6.136,213
6.137,214
6.137,235
6.137,234
6.137,236
6.138,238
6.138,230
6.138,237
6.149,0
6.149,0
6.149,0
6.149,0
6.15,0
6.15,0
6.15,0
6.151,0
6.151,0
6.151,0
6.151,0
6.152,0
6.152,0
6.152,0
6.152,0
6.153,0
6.153,0
6.153,0
6.154,192
6.164,0
6.164,0
6.165,0
6.165,0
6.165,0
6.165,0
6.166,0
6.166,0
6.166,0
6.166,0
6.167,0
6.167,0
6.167,0
6.168,0
6.168,0
6.168,0
6.168,0
6.169,0
6.169,0
6.169,0
6.18,250
6.18,250
6.18,251
6.18,253
6.181,257
6.181,251
6.181,251
6.182,252
6.182,253
6.182,250
6.182,250
6.183,240
6.183,38
6.183,0
6.183,0
6.184,0
6.194,247
6.194,240
6.195,231
6.195,231
6.195,229
6.196,228
6.196,221
6.196,211
6.196,211
6.197,231
6.197,237
6.197,230
6.197,233
6.198,231
6.198,229
6.208,0
6.209,0
6.209,0
6.209,0
6.209,0
6.21,0
6.21,0
6.21,0
6.211,0
6.211,0
6.211,0
6.211,0
6.212,0
6.212,0
6.212,0
6.212,0
6.213,0
6.213,0
6.213,85
6.214,272
6.224,0
6.224,0
6.225,0
6.225,0
6.225,0
6.225,0
6.226,0
6.226,0
6.226,0
6.226,0
6.227,0
6.227,0
6.227,0
6.227,0
6.228,0
6.228,0
6.228,0
6.229,0
6.229,0
6.239,247
6.24,256
6.24,254
6.24,256
6.24,256
6.241,252
6.241,255
6.241,254
6.241,253
6.242,252
6.242,254
6.242,251
6.243,208
6.243,0
6.243,0
6.243,0
6.254,251
6.254,251
6.254,240
6.255,237
6.255,230
6.255,229
6.255,224
6.256,221
6.256,213
6.256,212
6.257,240
6.257,231
6.257,233
6.257,235
6.258,230
6.268,0
6.268,0
6.269,0
6.269,0
6.269,0
6.269,0
6.27,0
6.27,0
6.27,0
6.271,0
6.271,0
6.271,0
6.271,0
6.272,0
6.272,0
6.272,0
6.272,0
6.273,0
6.273,0
6.273,263
6.284,0
6.284,0
6.284,0
6.285,0
6.285,0
6.285,0
6.285,0
6.286,0
6.286,0
6.286,0
6.286,0
6.287,0
6.287,0
6.287,0
6.288,0
6.288,0
6.288,0
6.288,0
6.289,0
6.299,246
6.299,250
6.3,241
6.3,257
6.3,255
6.3,251
6.301,251
6.301,251
6.301,250
6.302,252
6.302,246
6.302,250
6.302,243
6.303,141
6.303,0
6.303,0
6.314,250
6.314,243
6.314,238
6.314,234
6.315,227
6.315,221
6.315,222
6.315,213
6.316,212
6.316,207
6.316,223
6.317,225
6.317,238
6.317,231
6.317,227
6.328,0
6.328,0
6.328,0
6.329,0
6.329,0
6.329,0
6.33,0
6.33,0
6.33,0
6.33,0
6.331,0
6.331,0
6.331,0
6.331,0
6.332,0
6.332,0
6.332,0
6.332,0
6.333,0
6.343,0
6.343,0
6.344,0
6.344,0
6.344,0
6.345,0
6.345,0
6.345,0
6.345,0
6.346,0
6.346,0
6.346,0
6.346,0
6.347,0
6.347,0
6.347,0
6.348,0
6.348,0
6.348,0
6.348,0
6.359,246
6.359,254
6.359,256
6.36,251
6.36,257
6.36,255
6.36,253
6.361,251
6.361,254
6.361,254
6.362,256
6.362,247
6.362,251
6.362,234
6.363,0
6.363,0
6.373,266
6.374,252
6.374,242
6.374,210
6.374,230
6.375,225
6.375,225
6.375,214
6.375,215
6.376,211
6.376,240
6.376,236
6.377,225
6.377,232
6.377,239
6.388,0
6.388,0
6.388,0
6.388,0
6.389,0
6.389,0
6.389,0
6.389,0
6.39,0
6.39,0
6.39,0
6.391,0
6.391,0
6.391,0
6.391,0
6.392,0
6.392,0
6.392,0
6.392,0
6.403,0
6.403,0
6.403,0
6.404,0
6.404,0
6.404,0
6.404,0
6.405,0
6.405,0
6.405,0
6.406,0
6.406,0
6.406,0
6.406,0
6.407,0
6.407,0
6.407,0
6.407,0
6.408,0
6.408,0
6.418,243
6.419,254
6.419,256
6.419,258
6.419,257
6.42,257
6.42,258
6.42,251
6.421,255
6.421,253
6.421,251
6.421,250
6.422,253
6.422,254
6.422,232
6.433,56
6.433,242
6.433,274
6.433,258
6.434,250
6.434,245
6.434,234
6.435,233
6.435,231
6.435,224
6.435,223
6.436,221
6.436,209
6.436,236
6.436,230
6.447,0
6.447,0
6.447,0
6.448,0
6.448,0
6.448,0
6.448,0
6.449,0
6.449,0
6.449,0
6.45,0
6.45,0
6.45,0
6.45,0
6.451,0
6.451,0
6.451,0
6.451,0
6.452,0
6.452,0
6.462,0
6.463,0
6.463,0
6.463,0
6.464,0
6.464,0
6.464,0
6.464,0
6.465,0
6.465,0
6.465,0
6.465,0
6.466,0
6.466,0
6.466,0
6.466,0
6.467,0
6.467,0
6.467,0
6.468,0
6.478,245
6.478,256
6.479,253
6.479,254
6.479,254
6.479,252
6.48,252
6.48,251
6.48,266
6.48,252
6.481,253
6.481,253
6.481,251
6.482,251
6.482,243
6.492,0
6.493,64
6.493,293
6.493,279
6.493,261
6.494,255
6.494,239
6.494,239
6.495,236
6.495,228
6.495,227
6.495,222
6.496,215
6.496,241
6.496,237
6.507,0
6.507,0
6.507,0
6.507,0
6.508,0
6.508,0
6.508,0
6.508,0
6.509,0
6.509,0
6.509,0
6.51,0
6.51,0
6.51,0
6.51,0
6.511,0
6.511,0
6.511,0
6.511,0
6.512,0
6.522,0
6.522,0
6.523,0
6.523,0
6.523,0
6.524,0
6.524,0
6.524,0
6.524,0
6.525,0
6.525,0
6.525,0
6.525,0
6.526,0
6.526,0
6.526,0
6.527,0
6.527,0
6.527,0
6.527,0
6.538,240
6.538,256
6.538,251
6.539,257
6.539,253
6.539,254
6.539,290
6.54,252
6.54,253
6.54,253
6.541,252
6.541,250
6.541,251
6.541,251
6.542,245
6.552,0
6.552,0
6.553,227
6.553,279
6.553,266
6.553,256
6.554,244
6.554,238
6.554,240
6.554,233
6.555,229
6.555,221
6.555,220
6.556,215
6.556,240
6.556,245
6.567,0
6.567,0
6.567,0
6.567,0
6.568,0
6.568,0
6.568,0
6.568,0
6.569,0
6.569,0
6.569,0
6.57,0
6.57,0
6.57,0
6.57,0
6.571,0
6.571,0
6.571,0
6.571,0
6.582,160
6.582,0
6.582,0
6.583,0
6.583,0
6.583,0
6.583,0
6.584,0
6.584,0
6.584,0
6.585,0
6.585,0
6.585,0
6.585,0
6.586,0
6.586,0
6.586,0
6.586,0
6.587,0
6.587,0
6.597,230
6.598,243
6.598,245
6.598,245
6.599,247
6.599,251
6.599,247
6.599,247
6.6,246
6.6,246
6.6,246
6.6,243
6.601,251
6.601,246
6.601,247
6.612,0
6.612,0
6.612,17
6.612,203
6.613,282
6.613,271
6.613,255
6.614,243
6.614,240
6.614,237
6.614,232
6.615,231
6.615,231
6.615,218
6.615,215
6.626,0
6.626,0
6.626,0
6.627,0
6.627,0
6.627,0
6.628,0
6.628,0
6.628,0
6.628,0
6.629,0
6.629,0
6.629,0
6.629,0
6.63,0
6.63,0
6.63,0
6.631,0
6.631,0
6.631,0
6.642,234
6.642,9
6.642,0
6.642,0
6.643,0
6.643,0
6.643,0
6.643,0
6.644,0
6.644,0
6.644,0
6.645,0
6.645,0
6.645,0
6.645,0
6.646,0
6.646,0
6.646,0
6.646,0
6.647,0
6.657,240
6.657,249
6.658,241
6.658,244
6.658,250
6.659,251
6.659,249
6.659,259
6.659,253
6.66,250
6.66,247
6.66,250
6.66,251
6.661,250
6.661,245
6.671,0
6.672,0
6.672,0
6.672,113
6.672,245
6.673,245
6.673,256
6.673,253
6.674,223
6.674,238
6.674,236
6.674,231
6.675,227
6.675,223
6.675,222
6.686,0
6.686,0
6.686,0
6.686,0
6.687,0
6.687,0
6.687,0
6.688,0
6.688,0
6.688,0
6.688,0
6.689,0
6.689,0
6.689,0
6.689,0
6.69,0
6.69,0
6.69,0
6.69,0
6.691,0
6.701,242
6.702,221
6.702,0
6.702,0
6.702,0
6.703,0
6.703,0
6.703,0
6.703,0
6.704,0
6.704,0
6.704,0
6.704,0
6.705,0
6.705,0
6.705,0
6.706,0
6.706,0
6.706,0
6.706,0
6.717,239
6.717,240
6.717,246
6.718,245
6.718,248
6.718,250
6.718,244
6.719,247
6.719,247
6.719,249
6.72,242
6.72,250
6.72,248
6.72,245
6.721,242
6.731,0
6.731,0
6.732,0
6.732,230
6.732,273
6.733,261
6.733,255
6.733,249
6.733,246
6.734,240
6.734,235
6.734,228
6.734,229
6.735,224
6.735,200
6.735,213
6.746,0
6.746,0
6.746,0
6.746,0
6.747,0
6.747,0
6.747,0
6.748,0
6.748,0
6.748,0
6.748,0
6.749,0
6.749,0
6.749,0
6.749,0
6.75,0
6.75,0
6.75,0
6.75,0
6.761,240
6.761,235
6.762,53
6.762,0
6.762,0
6.762,0
6.763,0
6.763,0
6.763,0
6.763,0
6.764,0
6.764,0
6.764,0
6.765,0
6.765,0
6.765,0
6.765,0
6.766,0
6.766,0
6.776,240
6.777,246
6.777,243
6.777,244
6.777,253
6.778,245
6.778,252
6.778,250
6.779,255
6.779,250
6.779,248
6.779,251
6.78,247
6.78,252
6.78,248
6.791,0
6.791,0
6.791,0
6.791,0
6.792,61
6.792,296
6.792,256
6.793,245
6.793,236
6.793,248
6.793,242
6.794,237
6.794,233
6.794,234
6.794,227
6.795,219
6.805,0
6.805,0
6.806,0
6.806,0
6.806,0
6.806,0
6.807,0
6.807,0
6.807,0
6.808,0
6.808,0
6.808,0
6.808,0
6.809,0
6.809,0
6.809,0
6.809,0
6.81,0
6.81,0
6.81,0
6.821,246
6.821,257
6.821,207
6.821,0
6.822,0
6.822,0
6.822,0
6.823,0
6.823,0
6.823,0
6.823,0
6.824,0
6.824,0
6.824,0
6.824,0
6.825,0
6.825,0
6.825,0
6.826,0
6.836,236
6.836,242
6.837,240
6.837,240
6.837,241
6.837,239
6.838,240
6.838,243
6.838,246
6.838,245
6.839,245
6.839,244
6.839,243
6.84,245
6.84,240
6.85,0
6.851,0
6.851,0
6.851,0
6.851,0
6.852,95
6.852,291
6.852,272
6.852,259
6.853,257
6.853,244
6.853,240
6.854,236
6.854,230
6.854,231
6.854,225
6.865,0
6.865,0
6.865,0
6.866,0
6.866,0
6.866,0
6.866,0
6.867,0
6.867,0
6.867,0
6.868,0
6.868,0
6.868,0
6.868,0
6.869,0
6.869,0
6.869,0
6.869,0
6.87,0
6.87,0
6.88,242
6.881,264
6.881,246
6.881,55
6.882,0
6.882,0
6.882,0
6.882,0
6.883,0
6.883,0
6.883,0
6.883,0
6.884,0
6.884,0
6.884,0
6.884,0
6.885,0
6.885,0
6.885,0
6.896,234
6.896,243
6.896,240
6.897,241
6.897,243
6.897,241
6.897,243
6.898,244
6.898,247
6.898,248
6.898,249
6.899,247
6.899,244
6.899,198
6.9,243
6.91,0
6.91,0
6.911,0
6.911,0
6.911,0
6.911,0
6.912,97
6.912,297
6.912,281
6.912,267
6.913,254
6.913,247
6.913,243
6.913,240
6.914,236
6.914,225
6.914,221
6.925,0
6.925,0
6.925,0
6.926,0
6.926,0
6.926,0
6.926,0
6.927,0
6.927,0
6.927,0
6.927,0
6.928,0
6.928,0
6.928,0
6.928,0
6.929,0
6.929,0
6.929,0
6.93,0
6.94,251
6.94,249
6.941,247
6.941,238
6.941,0
6.941,0
6.942,0
6.942,0
6.942,0
6.943,0
6.943,0
6.943,0
6.943,0
6.944,0
6.944,0
6.944,0
6.944,0
6.945,0
6.945,0
6.955,235
6.956,238
6.956,242
6.956,240
6.957,240
6.957,241
6.957,242
6.957,242
6.958,243
6.958,243
6.958,245
6.958,247
6.959,244
6.959,242
6.959,242
6.97,0
6.97,0
6.97,0
6.971,0
6.971,0
6.971,0
6.971,39
6.972,257
6.972,282
6.972,266
6.972,253
6.973,256
6.973,240
6.973,235
6.973,229
6.974,235
6.984,0
6.985,0
6.985,0
6.985,0
6.985,0
6.986,0
6.986,0
6.986,0
6.986,0
6.987,0
6.987,0
6.987,0
6.987,0
6.988,0
6.988,0
6.988,0
6.989,0
6.989,0
6.989,0
6.989,0
7.0,247
7.0,251
7.0,249
7.001,241
7.001,39
7.001,0
7.001,0
7.002,0
7.002,0
7.002,0
7.003,0
7.003,0
7.003,0
7.003,0
7.004,0
7.004,0
7.004,0
7.004,0
7.005,0
7.015,231
7.015,240
7.016,240
7.016,240
7.016,245
7.017,242
7.017,240
7.017,241
7.017,241
7.018,243
7.018,249
7.018,245
7.018,240
7.019,241
7.019,240
7.029,0
7.03,0
7.03,0
7.03,0
7.031,0
7.031,0
7.031,0
7.031,143
7.032,296
7.032,277
7.032,264
7.032,253
7.033,245
7.033,240
7.033,235
7.033,229
7.034,231
7.044,0
7.045,0
7.045,0
7.045,0
7.045,0
7.046,0
7.046,0
7.046,0
7.046,0
7.047,0
7.047,0
7.047,0
7.047,0
7.048,0
7.048,0
7.048,0
7.049,0
7.049,0
7.049,0
7.06,249
7.06,256
7.06,254
7.06,254
7.061,227
7.061,0
7.061,0
7.061,0
7.062,0
7.062,0
7.062,0
7.063,0
7.063,0
7.063,0
7.063,0
7.064,0
7.064,0
7.064,0
7.075,236
7.075,238
7.075,240
7.075,226
7.076,240
7.076,240
7.076,241
7.077,239
7.077,241
7.077,240
7.077,245
7.078,242
7.078,242
7.078,244
7.078,241
7.089,0
7.089,0
7.089,0
7.09,0
7.09,0
7.09,0
7.09,0
7.091,0
7.091,23
7.091,241
7.092,286
7.092,271
7.092,257
7.092,250
7.093,240
7.093,240
7.093,235
7.104,0
7.104,0
7.104,0
7.104,0
7.105,0
7.105,0
7.105,0
7.106,0
7.106,0
7.106,0
7.106,0
7.107,0
7.107,0
7.107,0
7.107,0
7.108,0
7.108,0
7.108,0
7.108,0
7.109,0
7.119,256
7.12,258
7.12,251
7.12,253
7.12,249
7.121,128
7.121,0
7.121,0
7.121,0
7.122,0
7.122,0
7.122,0
7.122,0
7.123,0
7.123,0
7.123,0
7.124,0
7.124,0
7.134,217
7.135,240
7.135,239
7.135,240
7.135,242
7.136,240
7.136,238
7.136,239
7.136,238
7.137,242
7.137,240
7.137,244
7.138,240
7.138,243
7.138,245
7.149,0
7.149,0
7.149,0
7.149,0
7.15,0
7.15,0
7.15,0
7.15,0
7.151,0
7.151,59
7.151,283
7.151,283
7.152,269
7.152,256
7.152,252
7.153,240
7.153,239
7.163,0
7.164,0
7.164,0
7.164,0
7.164,0
7.165,0
7.165,0
7.165,0
7.165,0
7.166,0
7.166,0
7.166,0
7.167,0
7.167,0
7.167,0
7.167,0
7.168,0
7.168,0
7.168,0
7.168,0
7.179,247
7.179,256
7.179,258
7.18,251
7.18,255
7.18,240
7.181,0
7.181,0
7.181,0
7.181,0
7.182,0
7.182,0
7.182,0
7.182,0
7.183,0
7.183,0
7.183,0
7.184,0
7.194,210
7.194,240
7.195,240
7.195,240
7.195,240
7.195,239
7.196,241
7.196,239
7.196,240
7.196,240
7.197,240
7.197,240
7.197,245
7.198,243
7.198,244
7.208,0
7.209,0
7.209,0
7.209,0
7.209,0
7.21,0
7.21,0
7.21,0
7.21,0
7.211,30
7.211,263
7.211,288
7.212,270
7.212,254
7.212,247
7.212,242
7.213,240
7.213,240
7.223,0
7.224,0
7.224,0
7.224,0
7.224,0
7.225,0
7.225,0
7.225,0
7.226,0
7.226,0
7.226,0
7.226,0
7.227,0
7.227,0
7.227,0
7.227,0
7.228,0
7.228,0
7.228,0
7.239,244
7.239,256
7.239,254
7.239,251
7.24,253
7.24,247
7.24,145
7.241,0
7.241,0
7.241,0
7.241,0
7.242,0
7.242,0
7.242,0
7.242,0
7.243,0
7.243,0
7.243,0
7.254,227
7.254,235
7.254,238
7.255,241
7.255,241
7.255,240
7.255,239
7.256,238
7.256,241
7.256,241
7.256,246
7.257,240
7.257,245
7.257,242
7.258,240
7.268,0
7.268,0
7.269,0
7.269,0
7.269,0
7.269,0
7.27,0
7.27,0
7.27,0
7.27,0
7.271,144
7.271,304
7.271,279
7.272,271
7.272,247
7.272,247
7.272,243
7.283,0
7.283,0
7.283,0
7.284,0
7.284,0
7.284,0
7.284,0
7.285,0
7.285,0
7.285,0
7.286,0
7.286,0
7.286,0
7.286,0
7.287,0
7.287,0
7.287,0
7.287,0
7.288,0
7.288,0
7.298,240
7.299,254
7.299,251
7.299,252
7.3,257
7.3,254
7.3,173
7.3,0
7.301,0
7.301,0
7.301,0
7.301,0
7.302,0
7.302,0
7.302,0
7.303,0
7.303,0
7.303,0
7.314,218
7.314,225
7.314,239
7.314,240
7.315,240
7.315,244
7.315,243
7.315,238
7.316,244
7.316,246
7.316,244
7.317,242
7.317,243
7.317,243
7.317,245
7.328,0
7.328,0
7.328,0
7.329,0
7.329,0
7.329,0
7.329,0
7.33,0
7.33,0
7.33,0
7.33,96
7.331,290
7.331,257
7.331,240
7.332,238
7.332,256
7.332,244
7.332,240
7.343,0
7.343,0
7.343,0
7.344,0
7.344,0
7.344,0
7.344,0
7.345,0
7.345,0
7.345,0
7.346,0
7.346,0
7.346,0
7.346,0
7.347,0
7.347,0
7.347,0
7.347,0
7.348,0
7.358,242
7.358,253
7.359,255
7.359,254
7.359,249
7.359,250
7.36,238
7.36,123
7.36,0
7.361,0
7.361,0
7.361,0
7.361,0
7.362,0
7.362,0
7.362,0
7.362,0
7.373,214
7.373,223
7.374,213
7.374,238
7.374,239
7.374,238
7.375,238
7.375,240
7.375,231
7.375,240
7.376,238
7.376,231
7.376,238
7.376,240
7.377,240
7.387,0
7.387,0
7.388,0
7.388,0
7.388,0
7.389,0
7.389,0
7.389,0
7.389,0
7.39,0
7.39,0
7.39,0
7.39,165
7.391,268
7.391,246
7.391,256
7.392,255
7.392,250
7.402,0
7.403,0
7.403,0
7.403,0
7.403,0
7.404,0
7.404,0
7.404,0
7.404,0
7.405,0
7.405,0
7.405,0
7.405,0
7.406,0
7.406,0
7.406,0
7.407,0
7.407,0
7.407,0
7.407,0
7.418,247
7.418,240
7.418,253
7.419,246
7.419,254
7.419,249
7.419,256
7.42,218
7.42,0
7.42,0
7.42,0
7.421,0
7.421,0
7.421,0
7.422,0
7.422,0
7.422,0
7.433,217
7.433,220
7.433,213
7.433,215
7.434,237
7.434,231
7.434,236
7.434,243
7.435,239
7.435,237
7.435,240
7.436,235
7.436,240
7.436,237
7.436,241
7.447,0
7.447,0
7.447,0
7.448,0
7.448,0
7.448,0
7.448,0
7.449,0
7.449,0
7.449,0
7.45,0
7.45,0
7.45,0
7.45,256
7.451,283
7.451,277
7.451,271
7.451,255
7.462,0
7.462,0
7.462,0
7.463,0
7.463,0
7.463,0
7.464,0
7.464,0
7.464,0
7.464,0
7.465,0
7.465,0
7.465,0
7.465,0
7.466,0
7.466,0
7.466,0
7.467,0
7.467,0
7.467,0
7.478,245
7.478,256
7.478,254
7.478,254
7.479,249
7.479,251
7.479,251
7.479,245
7.48,123
7.48,0
7.48,0
7.481,0
7.481,0
7.481,0
7.481,0
7.482,0
7.482,0
7.492,222
7.493,222
7.493,213
7.493,215
7.493,236
7.494,229
7.494,240
7.494,240
7.495,240
7.495,237
7.495,240
7.495,235
7.496,240
7.496,240
7.496,240
7.507,0
7.507,0
7.507,0
7.507,0
7.508,0
7.508,0
7.508,0
7.509,0
7.509,0
7.509,0
7.509,0
7.51,0
7.51,0
7.51,181
7.51,301
7.511,272
7.511,251
7.511,248
7.511,247
7.522,0
7.522,0
7.522,0
7.523,0
7.523,0
7.523,0
7.524,0
7.524,0
7.524,0
7.524,0
7.525,0
7.525,0
7.525,0
7.525,0
7.526,0
7.526,0
7.526,0
7.527,0
7.527,0
7.537,249
7.538,256
7.538,256
7.538,254
7.538,255
7.539,270
7.539,259
7.539,250
7.539,240
7.54,0
7.54,0
7.54,0
7.54,0
7.541,0
7.541,0
7.541,0
7.542,0
7.552,225
7.552,229
7.553,222
7.553,214
7.553,219
7.553,237
7.554,235
7.554,236
7.554,235
7.554,239
7.555,237
7.555,240
7.555,240
7.556,239
7.556,239
7.566,0
7.566,0
7.567,0
7.567,0
7.567,0
7.568,0
7.568,0
7.568,0
7.568,0
7.569,0
7.569,0
7.569,0
7.569,0
7.57,0
7.57,160
7.57,291
7.571,273
7.571,261
7.581,0
7.582,0
7.582,0
7.582,0
7.582,0
7.583,0
7.583,0
7.583,0
7.583,0
7.584,0
7.584,0
7.584,0
7.585,0
7.585,0
7.585,0
7.585,0
7.586,0
7.586,0
7.586,0
7.586,0
7.597,240
7.597,253
7.597,247
7.598,242
7.598,256
7.598,255
7.599,250
7.599,251
7.599,244
7.599,155
7.6,0
7.6,0
7.6,0
7.6,0
7.601,0
7.601,0
7.601,0
7.612,225
7.612,226
7.612,221
7.613,212
7.613,213
7.613,216
7.613,236
7.614,235
7.614,234
7.614,235
7.614,234
7.615,231
7.615,235
7.615,235
7.616,240
7.626,0
7.626,0
7.627,0
7.627,0
7.627,0
7.627,0
7.628,0
7.628,0
7.628,0
7.628,0
7.629,0
7.629,0
7.629,0
7.63,0
7.63,115
7.63,298
7.63,282
7.631,266
7.641,0
7.641,0
7.642,0
7.642,0
7.642,0
7.642,0
7.643,0
7.643,0
7.643,0
7.644,0
7.644,0
7.644,0
7.644,0
7.645,0
7.645,0
7.645,0
7.645,0
7.646,0
7.646,0
7.646,0
7.657,246
7.657,254
7.657,252
7.658,251
7.658,255
7.658,250
7.658,251
7.659,247
7.659,245
7.659,192
7.659,0
7.66,0
7.66,0
7.66,0
7.661,0
7.661,0
7.661,0
7.672,223
7.672,229
7.672,218
7.672,222
7.673,213
7.673,209
7.673,237
7.673,231
7.674,237
7.674,235
7.674,233
7.674,238
7.675,237
7.675,215
7.675,237
7.686,0
7.686,0
7.686,0
7.687,0
7.687,0
7.687,0
7.687,0
7.688,0
7.688,0
7.688,0
7.688,0
7.689,0
7.689,0
7.689,0
7.69,27
7.69,240
7.69,294
7.69,272
7.691,264
7.701,0
7.701,0
7.702,0
7.702,0
7.702,0
7.702,0
7.703,0
7.703,0
7.703,0
7.704,0
7.704,0
7.704,0
7.704,0
7.705,0
7.705,0
7.705,0
7.705,0
7.706,0
7.706,0
7.716,251
7.717,258
7.717,250
7.717,256
7.717,212
7.718,256
7.718,253
7.718,254
7.719,252
7.719,249
7.719,145
7.719,0
7.72,0
7.72,0
7.72,0
7.72,0
7.731,224
7.731,240
7.731,228
7.732,226
7.732,186
7.732,211
7.733,211
7.733,226
7.733,236
7.733,235
7.734,231
7.734,230
7.734,229
7.734,235
7.735,230
7.745,0
7.745,0
7.746,0
7.746,0
7.746,0
7.747,0
7.747,0
7.747,0
7.747,0
7.748,0
7.748,0
7.748,0
7.748,0
7.749,0
7.749,0
7.749,0
7.749,108
7.75,294
7.75,282
7.76,0
7.761,0
7.761,0
7.761,0
7.762,0
7.762,0
7.762,0
7.762,0
7.763,0
7.763,0
7.763,0
7.763,0
7.764,0
7.764,0
7.764,0
7.765,0
7.765,0
7.765,0
7.765,0
7.766,0
7.776,242
7.776,251
7.777,253
7.777,251
7.777,251
7.777,249
7.778,249
7.778,250
7.778,247
7.779,249
7.779,203
7.779,0
7.779,0
7.78,0
7.78,0
7.78,0
7.791,229
7.791,229
7.791,230
7.791,226
7.792,221
7.792,211
7.792,215
7.793,206
7.793,227
7.793,235
7.793,231
7.794,237
7.794,230
7.794,229
7.794,229
7.805,0
7.805,0
7.805,0
7.806,0
7.806,0
7.806,0
7.807,0
7.807,0
7.807,0
7.807,0
7.808,0
7.808,0
7.808,0
7.808,0
7.809,0
7.809,0
7.809,26
7.809,259
7.81,288
7.82,0
7.821,0
7.821,0
7.821,0
7.821,0
7.822,0
7.822,0
7.822,0
7.822,0
7.823,0
7.823,0
7.823,0
7.823,0
7.824,0
7.824,0
7.824,0
7.825,0
7.825,0
7.825,0
7.825,0
7.836,243
7.836,256
7.836,256
7.837,254
7.837,255
7.837,254
7.838,255
7.838,254
7.838,256
7.838,246
7.839,243
7.839,43
7.839,0
7.839,0
7.84,0
7.84,0
7.85,241
7.851,230
7.851,222
7.851,224
7.851,227
7.852,218
7.852,210
7.852,208
7.853,229
7.853,231
7.853,231
7.853,237
7.854,235
7.854,235
7.854,235
7.865,0
7.865,0
7.865,0
7.865,0
7.866,0
7.866,0
7.866,0
7.867,0
7.867,0
7.867,0
7.867,0
7.868,0
7.868,0
7.868,0
7.868,0
7.869,0
7.869,0
7.869,146
7.869,301
7.87,283
7.88,0
7.881,0
7.881,0
7.881,0
7.881,0
7.882,0
7.882,0
7.882,0
7.882,0
7.883,0
7.883,0
7.883,0
7.883,0
7.884,0
7.884,0
7.884,0
7.885,0
7.885,0
7.885,0
7.896,243
7.896,257
7.896,252
7.896,256
7.897,253
7.897,253
7.897,252
7.897,253
7.898,247
7.898,253
7.898,247
7.899,220
7.899,0
7.899,0
7.899,0
7.9,0
7.91,247
7.91,240
7.911,235
7.911,227
7.911,221
7.911,220
7.912,208
7.912,212
7.912,209
7.912,232
7.913,231
7.913,227
7.913,236
7.914,227
7.914,234
7.924,0
7.925,0
7.925,0
7.925,0
7.925,0
7.926,0
7.926,0
7.926,0
7.927,0
7.927,0
7.927,0
7.927,0
7.928,0
7.928,0
7.928,0
7.928,0
7.929,0
7.929,99
7.929,304
7.94,0
7.94,0
7.94,0
7.941,0
7.941,0
7.941,0
7.941,0
7.942,0
7.942,0
7.942,0
7.942,0
7.943,0
7.943,0
7.943,0
7.943,0
7.944,0
7.944,0
7.944,0
7.945,0
7.945,0
7.955,246
7.956,252
7.956,256
7.956,251
7.956,254
7.957,254
7.957,250
7.957,253
7.958,263
7.958,249
7.958,250
7.958,235
7.959,0
7.959,0
7.959,0
7.959,0
7.97,240
7.97,247
7.97,236
7.971,232
7.971,225
7.971,225
7.971,220
7.972,213
7.972,213
7.972,229
7.973,233
7.973,231
7.973,242
7.973,237
7.974,231
7.984,0
7.984,0
7.985,0
7.985,0
7.985,0
7.985,0
7.986,0
7.986,0
7.986,0
7.987,0
7.987,0
7.987,0
7.987,0
7.988,0
7.988,0
7.988,0
7.988,0
7.989,30
7.989,276
7.989,266
8.0,0
8.0,0
8.0,0
8.001,0
8.001,0
8.001,0
8.001,0
8.002,0
8.002,0
8.002,0
8.002,0
8.003,0
8.003,0
8.003,0
8.003,0
8.004,0
8.004,0
8.004,0
8.005,0
8.015,230
8.015,249
8.016,246
8.016,247
8.016,251
8.016,247
8.017,251
8.017,251
8.017,255
8.017,246
8.018,243
8.018,242
8.018,229
8.018,0
8.019,0
8.019,0
8.03,245
8.03,242
8.03,239
8.03,227
8.031,227
8.031,217
8.031,216
8.031,209
8.032,211
8.032,210
8.032,215
8.033,231
8.033,229
8.033,226
8.033,230
8.044,0
8.044,0
8.044,0
8.045,0
8.045,0
8.045,0
8.045,0
8.046,0
8.046,0
8.046,0
8.046,0
8.047,0
8.047,0
8.047,0
8.048,0
8.048,0
8.048,0
8.048,0
8.049,48
8.059,0
8.059,0
8.06,0
8.06,0
8.06,0
8.06,0
8.061,0
8.061,0
8.061,0
8.061,0
8.062,0
8.062,0
8.062,0
8.063,0
8.063,0
8.063,0
8.063,0
8.064,0
8.064,0
8.064,0
8.075,245
8.075,254
8.075,254
8.075,256
8.076,254
8.076,249
8.076,251
8.077,246
8.077,251
8.077,253
8.077,250
8.078,253
8.078,241
8.078,143
8.078,0
8.089,270
8.089,256
8.089,252
8.09,241
8.09,235
8.09,224
8.091,221
8.091,219
8.091,214
8.091,208
8.092,177
8.092,228
8.092,224
8.092,228
8.093,224
8.103,0
8.103,0
8.104,0
8.104,0
8.104,0
8.105,0
8.105,0
8.105,0
8.105,0
8.106,0
8.106,0
8.106,0
8.106,0
8.107,0
8.107,0
8.107,0
8.107,0
8.108,0
8.108,0
8.108,0
8.119,0
8.119,0
8.119,0
8.12,0
8.12,0
8.12,0
8.12,0
8.121,0
8.121,0
8.121,0
8.121,0
8.122,0
8.122,0
8.122,0
8.122,0
8.123,0
8.123,0
8.123,0
8.124,0
8.124,0
8.134,240
8.135,245
8.135,251
8.135,258
8.135,256
8.136,251
8.136,252
8.136,247
8.137,253
8.137,251
8.137,254
8.137,250
8.138,247
8.138,215
8.138,3
8.149,242
8.149,272
8.149,259
8.149,247
8.15,240
8.15,231
8.15,223
8.151,221
8.151,219
8.151,211
8.151,211
8.152,203
8.152,234
8.152,233
8.152,229
8.163,0
8.163,0
8.163,0
8.164,0
8.164,0
8.164,0
8.165,0
8.165,0
8.165,0
8.165,0
8.166,0
8.166,0
8.166,0
8.166,0
8.167,0
8.167,0
8.167,0
8.167,0
8.168,0
8.168,0
8.178,0
8.179,0
8.179,0
8.179,0
8.18,0
8.18,0
8.18,0
8.18,0
8.181,0
8.181,0
8.181,0
8.181,0
8.182,0
8.182,0
8.182,0
8.182,0
8.183,0
8.183,0
8.183,0
8.184,0
8.194,240
8.194,252
8.195,254
8.195,294
8.195,254
8.195,253
8.196,251
8.196,246
8.196,250
8.196,256
8.197,251
8.197,249
8.197,249
8.198,242
8.198,124
8.208,104
8.209,288
8.209,267
8.209,256
8.209,243
8.21,238
8.21,233
8.21,229
8.21,223
8.211,222
8.211,211
8.211,212
8.212,215
8.212,235
8.212,230
8.223,0
8.223,0
8.223,0
8.223,0
8.224,0
8.224,0
8.224,0
8.224,0
8.225,0
8.225,0
8.225,0
8.226,0
8.226,0
8.226,0
8.226,0
8.227,0
8.227,0
8.227,0
8.227,0
8.228,0
8.238,0
8.238,0
8.239,0
8.239,0
8.239,0
8.239,0
8.24,0
8.24,0
8.24,0
8.241,0
8.241,0
8.241,0
8.241,0
8.242,0
8.242,0
8.242,0
8.242,0
8.243,0
8.243,0
8.243,0
8.254,245
8.254,250
8.254,251
8.255,255
8.255,255
8.255,249
8.255,251
8.256,247
8.256,246
8.256,250
8.256,245
8.257,251
8.257,244
8.257,243
8.257,242
8.268,0
8.268,205
8.269,288
8.269,263
8.269,254
8.269,247
8.27,240
8.27,240
8.27,234
8.27,231
8.271,227
8.271,221
8.271,209
8.271,237
8.272,234
8.282,0
8.282,0
8.283,0
8.283,0
8.283,0
8.284,0
8.284,0
8.284,0
8.284,0
8.285,0
8.285,0
8.285,0
8.285,0
8.286,0
8.286,0
8.286,0
8.286,0
8.287,0
8.287,0
8.287,0
8.298,0
8.298,0
8.298,0
8.299,0
8.299,0
8.299,0
8.299,0
8.3,0
8.3,0
8.3,0
8.3,0
8.301,0
8.301,0
8.301,0
8.302,0
8.302,0
8.302,0
8.302,0
8.303,0
8.303,0
8.313,240
8.314,251
8.314,243
8.314,254
8.314,249
8.315,252
8.315,251
8.315,253
8.316,251
8.316,243
8.316,246
8.316,254
8.317,245
8.317,254
8.317,240
8.328,0
8.328,23
8.328,255
8.328,284
8.329,259
8.329,253
8.329,245
8.33,240
8.33,235
8.33,231
8.33,224
8.331,225
8.331,217
8.331,226
8.331,238
8.342,0
8.342,0
8.342,0
8.343,0
8.343,0
8.343,0
8.344,0
8.344,0
8.344,0
8.344,0
8.345,0
8.345,0
8.345,0
8.345,0
8.346,0
8.346,0
8.346,0
8.346,0
8.347,0
8.347,0
8.357,37
8.358,0
8.358,0
8.358,0
8.359,0
8.359,0
8.359,0
8.359,0
8.36,0
8.36,0
8.36,0
8.36,0
8.361,0
8.361,0
8.361,0
8.362,0
8.362,0
8.362,0
8.362,0
8.363,0
8.373,240
8.373,247
8.374,249
8.374,246
8.374,254
8.374,247
8.375,249
8.375,247
8.375,250
8.375,241
8.376,250
8.376,244
8.376,251
8.377,245
8.377,246
8.387,0
8.388,0
8.388,175
8.388,287
8.388,272
8.389,262
8.389,241
8.389,233
8.39,241
8.39,230
8.39,230
8.39,226
8.391,222
8.391,213
8.391,237
8.402,0
8.402,0
8.402,0
8.402,0
8.403,0
8.403,0
8.403,0
8.404,0
8.404,0
8.404,0
8.404,0
8.405,0
8.405,0
8.405,0
8.405,0
8.406,0
8.406,0
8.406,0
8.406,0
8.407,0
8.417,157
8.417,0
8.418,0
8.418,0
8.418,0
8.419,0
8.419,0
8.419,0
8.419,0
8.42,0
8.42,0
8.42,0
8.42,0
8.421,0
8.421,0
8.421,0
8.421,0
8.422,0
8.422,0
8.433,237
8.433,242
8.433,240
8.433,245
8.434,246
8.434,245
8.434,244
8.434,244
8.435,245
8.435,241
8.435,243
8.435,246
8.436,249
8.436,243
8.436,241
8.447,0
8.447,0
8.447,0
8.448,47
8.448,240
8.448,253
8.448,233
8.449,242
8.449,240
8.449,240
8.449,240
8.45,233
8.45,239
8.45,222
8.451,225
8.451,215
8.461,0
8.462,0
8.462,0
8.462,0
8.462,0
8.463,0
8.463,0
8.463,0
8.463,0
8.464,0
8.464,0
8.464,0
8.464,0
8.465,0
8.465,0
8.465,0
8.466,0
8.466,0
8.466,0
8.466,0
8.477,242
8.477,176
8.477,0
8.478,0
8.478,0
8.478,0
8.478,0
8.479,0
8.479,0
8.479,0
8.48,0
8.48,0
8.48,0
8.48,0
8.481,0
8.481,0
8.481,0
8.481,0
8.482,0
8.492,233
8.492,240
8.493,240
8.493,246
8.493,246
8.494,243
8.494,241
8.494,243
8.494,246
8.495,247
8.495,245
8.495,240
8.495,242
8.496,244
8.496,245
8.506,0
8.507,0
8.507,0
8.507,0
8.507,66
8.508,269
8.508,278
8.508,272
8.509,256
8.509,253
8.509,213
8.509,240
8.51,234
8.51,224
8.51,225
8.51,221
8.521,0
8.521,0
8.521,0
8.522,0
8.522,0
8.522,0
8.522,0
8.523,0
8.523,0
8.523,0
8.524,0
8.524,0
8.524,0
8.524,0
8.525,0
8.525,0
8.525,0
8.525,0
8.526,0
8.526,0
8.536,239
8.537,226
8.537,124
8.537,0
8.538,0
8.538,0
8.538,0
8.538,0
8.539,0
8.539,0
8.539,0
8.539,0
8.54,0
8.54,0
8.54,0
8.541,0
8.541,0
8.541,0
8.541,0
8.552,240
8.552,240
8.552,246
8.553,244
8.553,245
8.553,243
8.553,243
8.554,250
8.554,244
8.554,258
8.554,252
8.555,246
8.555,247
8.555,247
8.556,243
8.566,0
8.566,0
8.567,0
8.567,0
8.567,0
8.567,176
8.568,288
8.568,259
8.568,250
8.568,255
8.569,243
8.569,240
8.569,237
8.57,235
8.57,230
8.57,224
8.581,0
8.581,0
8.581,0
8.581,0
8.582,0
8.582,0
8.582,0
8.583,0
8.583,0
8.583,0
8.583,0
8.584,0
8.584,0
8.584,0
8.584,0
8.585,0
8.585,0
8.585,0
8.585,0
8.586,0
8.596,249
8.596,249
8.597,208
8.597,0
8.597,0
8.598,0
8.598,0
8.598,0
8.598,0
8.599,0
8.599,0
8.599,0
8.599,0
8.6,0
8.6,0
8.6,0
8.6,0
8.601,0
8.601,0
8.611,237
8.612,242
8.612,240
8.612,242
8.613,240
8.613,243
8.613,242
8.613,245
8.614,243
8.614,243
8.614,244
8.614,240
8.615,240
8.615,240
8.615,240
8.626,0
8.626,0
8.626,0
8.627,0
8.627,0
8.627,0
8.627,224
8.628,290
8.628,273
8.628,259
8.628,249
8.629,243
8.629,237
8.629,230
8.629,226
8.63,228
8.64,0
8.641,0
8.641,0
8.641,0
8.641,0
8.642,0
8.642,0
8.642,0
8.642,0
8.643,0
8.643,0
8.643,0
8.643,0
8.644,0
8.644,0
8.644,0
8.645,0
8.645,0
8.645,0
8.645,0
8.656,244
8.656,250
8.656,243
8.657,81
8.657,0
8.657,0
8.657,0
8.658,0
8.658,0
8.658,0
8.659,0
8.659,0
8.659,0
8.659,0
8.66,0
8.66,0
8.66,0
8.66,0
8.661,0
8.671,234
8.671,240
8.672,238
8.672,239
8.672,240
8.673,241
8.673,242
8.673,242
8.673,241
8.674,240
8.674,240
8.674,244
8.674,237
8.675,240
8.675,240
8.685,0
8.686,0
8.686,0
8.686,0
8.686,0
8.687,0
8.687,112
8.687,295
8.688,277
8.688,263
8.688,253
8.688,247
8.689,241
8.689,232
8.689,231
8.689,229
8.7,0
8.7,0
8.7,0
8.701,0
8.701,0
8.701,0
8.702,0
8.702,0
8.702,0
8.702,0
8.703,0
8.703,0
8.703,0
8.703,0
8.704,0
8.704,0
8.704,0
8.705,0
8.705,0
8.705,0
8.716,245
8.716,254
8.716,240
8.716,240
8.717,2
8.717,0
8.717,0
8.717,0
8.718,0
8.718,0
8.718,0
8.718,0
8.719,0
8.719,0
8.719,0
8.72,0
8.72,0
8.72,0
8.72,0
8.731,238
8.731,241
8.731,240
8.732,245
8.732,245
8.732,238
8.732,240
8.733,242
8.733,241
8.733,241
8.734,244
8.734,243
8.734,240
8.734,240
8.735,238
8.745,0
8.745,0
8.746,0
8.746,0
8.746,0
8.746,0
8.747,0
8.747,134
8.747,299
8.747,272
8.748,269
8.748,251
8.748,247
8.749,240
8.749,240
8.749,227
8.76,0
8.76,0
8.76,0
8.76,0
8.761,0
8.761,0
8.761,0
8.761,0
8.762,0
8.762,0
8.762,0
8.763,0
8.763,0
8.763,0
8.763,0
8.764,0
8.764,0
8.764,0
8.764,0
8.765,0
8.775,246
8.775,250
8.776,250
8.776,245
8.776,186
8.777,0
8.777,0
8.777,0
8.777,0
8.778,0
8.778,0
8.778,0
8.778,0
8.779,0
8.779,0
8.779,0
8.78,0
8.78,0
8.78,0
8.791,239
8.791,240
8.791,240
8.791,237
8.792,240
8.792,239
8.792,240
8.792,240
8.793,240
8.793,242
8.793,240
8.794,239
8.794,241
8.794,235
8.794,240
8.805,0
8.805,0
8.805,0
8.806,0
8.806,0
8.806,0
8.806,0
8.807,73
8.807,275
8.807,287
8.807,268
8.808,256
8.808,253
8.808,240
8.809,241
8.809,237
8.809,233
8.82,0
8.82,0
8.82,0
8.82,0
8.821,0
8.821,0
8.821,0
8.821,0
8.822,0
8.822,0
8.822,0
8.823,0
8.823,0
8.823,0
8.823,0
8.824,0
8.824,0
8.824,0
8.824,0
8.835,245
8.835,254
8.835,253
8.836,251
8.836,240
8.836,79
8.836,0
8.837,0
8.837,0
8.837,0
8.838,0
8.838,0
8.838,0
8.838,0
8.839,0
8.839,0
8.839,0
8.839,0
8.85,231
8.85,240
8.85,240
8.851,240
8.851,239
8.851,239
8.852,240
8.852,240
8.852,240
8.852,240
8.853,238
8.853,240
8.853,238
8.853,241
8.854,240
8.864,0
8.864,0
8.865,0
8.865,0
8.865,0
8.866,0
8.866,0
8.866,0
8.866,0
8.867,133
8.867,297
8.867,284
8.867,261
8.868,258
8.868,245
8.868,243
8.869,241
8.879,0
8.879,0
8.88,0
8.88,0
8.88,0
8.88,0
8.881,0
8.881,0
8.881,0
8.881,0
8.882,0
8.882,0
8.882,0
8.883,0
8.883,0
8.883,0
8.883,0
8.884,0
8.884,0
8.884,0
8.895,247
8.895,246
8.895,252
8.895,247
8.896,254
8.896,128
8.896,0
8.897,0
8.897,0
8.897,0
8.897,0
8.898,0
8.898,0
8.898,0
8.898,0
8.899,0
8.899,0
8.899,0
8.91,226
8.91,240
8.91,239
8.911,238
8.911,240
8.911,240
8.911,239
8.912,235
8.912,236
8.912,238
8.912,240
8.913,241
8.913,240
8.913,240
8.914,240
8.924,0
8.924,0
8.925,0
8.925,0
8.925,0
8.925,0
8.926,0
8.926,0
8.926,0
8.926,128
8.927,292
8.927,272
8.927,264
8.927,247
8.928,242
8.928,245
8.928,239
8.939,0
8.939,0
8.939,0
8.94,0
8.94,0
8.94,0
8.94,0
8.941,0
8.941,0
8.941,0
8.941,0
8.942,0
8.942,0
8.942,0
8.943,0
8.943,0
8.943,0
8.943,0
8.944,0
8.944,0
8.954,240
8.955,246
8.955,250
8.955,251
8.955,247
8.956,223
8.956,0
8.956,0
8.957,0
8.957,0
8.957,0
8.957,0
8.958,0
8.958,0
8.958,0
8.958,0
8.959,0
8.959,0
8.969,212
8.97,240
8.97,242
8.97,240
8.971,243
8.971,240
8.971,240
8.971,239
8.972,240
8.972,235
8.972,240
8.972,241
8.973,243
8.973,242
8.973,240
8.984,0
8.984,0
8.984,0
8.985,0
8.985,0
8.985,0
8.985,0
8.986,0
8.986,0
8.986,0
8.986,225
8.987,278
8.987,266
8.987,256
8.987,247
8.988,229
8.988,236
8.988,237
8.999,0
8.999,0
8.999,0
9.0,0
9.0,0
9.0,0
9.0,0
9.001,0
9.001,0
9.001,0
9.001,0
9.002,0
9.002,0
9.002,0
9.003,0
9.003,0
9.003,0
9.003,0
9.004,0
9.014,242
9.014,254
9.015,247
9.015,252
9.015,247
9.015,246
9.016,129
9.016,0
9.016,0
9.017,0
9.017,0
9.017,0
9.017,0
9.018,0
9.018,0
9.018,0
9.018,0
9.019,0
9.029,214
9.029,236
9.03,240
9.03,240
9.03,238
9.03,240
9.031,236
9.031,240
9.031,240
9.032,240
9.032,241
9.032,240
9.032,238
9.033,240
9.033,240
9.043,0
9.044,0
9.044,0
9.044,0
9.044,0
9.045,0
9.045,0
9.045,0
9.046,0
9.046,0
9.046,191
9.046,293
9.047,273
9.047,227
9.047,228
9.047,234
9.048,242
9.058,0
9.058,0
9.059,0
9.059,0
9.059,0
9.06,0
9.06,0
9.06,0
9.06,0
9.061,0
9.061,0
9.061,0
9.061,0
9.062,0
9.062,0
9.062,0
9.062,0
9.063,0
9.063,0
9.063,0
9.074,241
9.074,253
9.074,252
9.075,246
9.075,253
9.075,253
9.075,214
9.076,0
9.076,0
9.076,0
9.077,0
9.077,0
9.077,0
9.077,0
9.078,0
9.078,0
9.078,0
9.078,0
9.089,211
9.089,214
9.089,240
9.09,239
9.09,239
9.09,237
9.09,239
9.091,240
9.091,239
9.091,239
9.092,240
9.092,239
9.092,238
9.092,240
9.093,238
9.103,0
9.103,0
9.104,0
9.104,0
9.104,0
9.104,0
9.105,0
9.105,0
9.105,0
9.106,0
9.106,62
9.106,288
9.106,272
9.107,237
9.107,257
9.107,256
9.107,244
9.108,242
9.118,0
9.118,0
9.119,0
9.119,0
9.119,0
9.12,0
9.12,0
9.12,0
9.12,0
9.121,0
9.121,0
9.121,0
9.121,0
9.122,0
9.122,0
9.122,0
9.122,0
9.123,0
9.123,0
9.133,245
9.134,253
9.134,250
9.134,256
9.135,256
9.135,253
9.135,239
9.135,158
9.136,0
9.136,0
9.136,0
9.136,0
9.137,0
9.137,0
9.137,0
9.138,0
9.138,0
9.148,219
9.149,219
9.149,211
9.149,235
9.149,239
9.15,237
9.15,239
9.15,235
9.15,237
9.151,237
9.151,237
9.151,240
9.152,240
9.152,231
9.152,241
9.163,0
9.163,0
9.163,0
9.163,0
9.164,0
9.164,0
9.164,0
9.164,0
9.165,0
9.165,0
9.165,0
9.166,0
9.166,178
9.166,286
9.166,228
9.167,214
9.167,216
9.167,253
9.178,0
9.178,0
9.178,0
9.178,0
9.179,0
9.179,0
9.179,0
9.18,0
9.18,0
9.18,0
9.18,0
9.181,0
9.181,0
9.181,0
9.181,0
9.182,0
9.182,0
9.182,0
9.182,0
9.183,0
9.193,243
9.194,254
9.194,250
9.194,253
9.194,256
9.195,254
9.195,251
9.195,160
9.195,0
9.196,0
9.196,0
9.196,0
9.196,0
9.197,0
9.197,0
9.197,0
9.198,0
9.198,0
9.208,215
9.209,218
9.209,227
9.209,240
9.209,240
9.21,240
9.21,239
9.21,236
9.21,240
9.211,240
9.211,237
9.211,240
9.212,239
9.212,238
9.212,243
9.223,0
9.223,0
9.223,0
9.223,0
9.224,0
9.224,0
9.224,0
9.224,0
9.225,0
9.225,0
9.225,0
9.226,75
9.226,297
9.226,279
9.226,272
9.227,256
9.227,250
9.237,0
9.238,0
9.238,0
9.238,0
9.238,0
9.239,0
9.239,0
9.239,0
9.24,0
9.24,0
9.24,0
9.24,0
9.241,0
9.241,0
9.241,0
9.241,0
9.242,0
9.242,0
9.242,0
9.242,0
9.253,225
9.253,251
9.254,257
9.254,256
9.254,256
9.254,255
9.255,252
9.255,231
9.255,0
9.255,0
9.256,0
9.256,0
9.256,0
9.256,0
9.257,0
9.257,0
9.257,0
9.258,0
9.268,208
9.268,220
9.269,214
9.269,239
9.269,238
9.269,235
9.27,234
9.27,238
9.27,235
9.271,240
9.271,237
9.271,239
9.271,235
9.272,238
9.272,240
9.282,0
9.283,0
9.283,0
9.283,0
9.283,0
9.284,0
9.284,0
9.284,0
9.285,0
9.285,0
9.285,0
9.285,4
9.286,234
9.286,288
9.286,269
9.286,257
9.287,253
9.287,240
9.297,0
9.298,0
9.298,0
9.298,0
9.298,0
9.299,0
9.299,0
9.299,0
9.3,0
9.3,0
9.3,0
9.3,0
9.301,0
9.301,0
9.301,0
9.301,0
9.302,0
9.302,0
9.302,0
9.313,243
9.313,252
9.313,249
9.314,251
9.314,252
9.314,248
9.314,247
9.315,240
9.315,151
9.315,0
9.315,0
9.316,0
9.316,0
9.316,0
9.316,0
9.317,0
9.317,0
9.327,223
9.328,222
9.328,222
9.328,212
9.329,210
9.329,235
9.329,240
9.329,238
9.33,236
9.33,235
9.33,237
9.33,231
9.331,233
9.331,260
9.331,239
9.342,0
9.342,0
9.342,0
9.343,0
9.343,0
9.343,0
9.343,0
9.344,0
9.344,0
9.344,0
9.344,0
9.345,0
9.345,0
9.345,97
9.345,294
9.346,283
9.346,267
9.346,253
9.347,249
9.357,0
9.357,0
9.358,0
9.358,0
9.358,0
9.358,0
9.359,0
9.359,0
9.359,0
9.359,0
9.36,0
9.36,0
9.36,0
9.361,0
9.361,0
9.361,0
9.361,0
9.362,0
9.362,0
9.372,245
9.373,256
9.373,253
9.373,255
9.373,256
9.374,252
9.374,250
9.374,251
9.375,243
9.375,67
9.375,0
9.375,0
9.376,0
9.376,0
9.376,0
9.376,0
9.377,0
9.387,221
9.387,231
9.388,222
9.388,217
9.388,213
9.388,235
9.389,233
9.389,237
9.389,234
9.39,234
9.39,231
9.39,237
9.39,231
9.391,234
9.391,235
9.401,0
9.402,0
9.402,0
9.402,0
9.402,0
9.403,0
9.403,0
9.403,0
9.404,0
9.404,0
9.404,0
9.404,0
9.405,0
9.405,0
9.405,128
9.405,299
9.406,279
9.406,263
9.416,0
9.417,0
9.417,0
9.417,0
9.418,0
9.418,0
9.418,0
9.418,0
9.419,0
9.419,0
9.419,0
9.419,0
9.42,0
9.42,0
9.42,0
9.42,0
9.421,0
9.421,0
9.421,0
9.422,0
9.432,241
9.432,256
9.433,255
9.433,251
9.433,246
9.433,250
9.434,251
9.434,252
9.434,250
9.434,197
9.435,0
9.435,0
9.435,0
9.436,0
9.436,0
9.436,0
9.436,0
9.447,225
9.447,230
9.447,224
9.448,222
9.448,220
9.448,218
9.448,234
9.449,239
9.449,231
9.449,230
9.45,231
9.45,231
9.45,234
9.45,235
9.451,236
9.461,0
9.461,0
9.462,0
9.462,0
9.462,0
9.462,0
9.463,0
9.463,0
9.463,0
9.464,0
9.464,0
9.464,0
9.464,0
9.465,0
9.465,80
9.465,277
9.465,287
9.466,270
9.466,261
9.477,0
9.477,0
9.477,0
9.477,0
9.478,0
9.478,0
9.478,0
9.478,0
9.479,0
9.479,0
9.479,0
9.479,0
9.48,0
9.48,0
9.48,0
9.481,0
9.481,0
9.481,0
9.481,0
9.492,241
9.492,249
9.492,246
9.493,251
9.493,253
9.493,259
9.493,247
9.494,249
9.494,247
9.494,240
9.494,0
9.495,0
9.495,0
9.495,0
9.496,0
9.496,0
9.496,0
9.507,229
9.507,228
9.507,227
9.507,219
9.508,214
9.508,212
9.508,235
9.508,227
9.509,234
9.509,237
9.509,227
9.51,232
9.51,257
9.51,233
9.51,236
9.521,0
9.521,0
9.521,0
9.522,0
9.522,0
9.522,0
9.523,0
9.523,0
9.523,0
9.523,0
9.524,0
9.524,0
9.524,0
9.524,0
9.525,0
9.525,227
9.525,294
9.525,278
9.526,259
9.536,0
9.536,0
9.537,0
9.537,0
9.537,0
9.538,0
9.538,0
9.538,0
9.538,0
9.539,0
9.539,0
9.539,0
9.539,0
9.54,0
9.54,0
9.54,0
9.541,0
9.541,0
9.541,0
9.552,244
9.552,263
9.552,251
9.552,251
9.553,254
9.553,247
9.553,245
9.553,246
9.554,245
9.554,240
9.554,159
9.554,0
9.555,0
9.555,0
9.555,0
9.556,0
9.566,223
9.566,227
9.567,229
9.567,223
9.567,220
9.567,217
9.568,209
9.568,228
9.568,233
9.569,233
9.569,236
9.569,228
9.569,237
9.57,235
9.57,228
9.58,0
9.581,0
9.581,0
9.581,0
9.581,0
9.582,0
9.582,0
9.582,0
9.582,0
9.583,0
9.583,0
9.583,0
9.584,0
9.584,0
9.584,0
9.584,0
9.585,102
9.585,294
9.585,277
9.596,0
9.596,0
9.596,0
9.596,0
9.597,0
9.597,0
9.597,0
9.598,0
9.598,0
9.598,0
9.598,0
9.599,0
9.599,0
9.599,0
9.599,0
9.6,0
9.6,0
9.6,0
9.6,0
9.601,0
9.611,243
9.612,249
9.612,257
9.612,254
9.612,251
9.613,252
9.613,249
9.613,247
9.613,247
9.614,246
9.614,239
9.614,0
9.614,0
9.615,0
9.615,0
9.615,0
9.626,235
9.626,232
9.626,227
9.627,223
9.627,222
9.627,219
9.627,209
9.628,209
9.628,234
9.628,234
9.629,228
9.629,229
9.629,231
9.629,229
9.63,234
9.64,0
9.64,0
9.641,0
9.641,0
9.641,0
9.641,0
9.642,0
9.642,0
9.642,0
9.642,0
9.643,0
9.643,0
9.643,0
9.644,0
9.644,0
9.644,0
9.644,16
9.645,219
9.645,276
9.655,0
9.656,0
9.656,0
9.656,0
9.656,0
9.657,0
9.657,0
9.657,0
9.658,0
9.658,0
9.658,0
9.658,0
9.659,0
9.659,0
9.659,0
9.659,0
9.66,0
9.66,0
9.66,0
9.661,0
9.671,241
9.671,253
9.672,249
9.672,245
9.672,256
9.672,249
9.673,250
9.673,253
9.673,240
9.673,247
9.674,232
9.674,49
9.674,0
9.675,0
9.675,0
9.675,0
9.686,238
9.686,258
9.686,230
9.686,223
9.687,226
9.687,221
9.687,217
9.687,213
9.688,234
9.688,230
9.688,235
9.689,235
9.689,236
9.689,227
9.689,229
9.7,0
9.7,0
9.7,0
9.701,0
9.701,0
9.701,0
9.701,0
9.702,0
9.702,0
9.702,0
9.702,0
9.703,0
9.703,0
9.703,0
9.704,0
9.704,0
9.704,0
9.704,130
9.705,251
9.705,221
9.715,0
9.716,0
9.716,0
9.716,0
9.716,0
9.717,0
9.717,0
9.717,0
9.718,0
9.718,0
9.718,0
9.718,0
9.719,0
9.719,0
9.719,0
9.719,0
9.72,0
9.72,0
9.72,0
9.731,240
9.731,256
9.731,256
9.732,254
9.732,251
9.732,250
9.732,247
9.733,252
9.733,246
9.733,250
9.733,254
9.734,214
9.734,0
9.734,0
9.734,0
9.735,0
9.745,241
9.745,223
9.746,231
9.746,228
9.746,224
9.747,223
9.747,221
9.747,211
9.747,211
9.748,231
9.748,236
9.748,232
9.748,234
9.749,234
9.749,227
9.76,0
9.76,0
9.76,0
9.76,0
9.761,0
9.761,0
9.761,0
9.761,0
9.762,0
9.762,0
9.762,0
9.762,0
9.763,0
9.763,0
9.763,0
9.764,0
9.764,0
9.764,74
9.764,257
9.775,0
9.775,0
9.775,0
9.776,0
9.776,0
9.776,0
9.776,0
9.777,0
9.777,0
9.777,0
9.778,0
9.778,0
9.778,0
9.778,0
9.779,0
9.779,0
9.779,0
9.779,0
9.78,0
9.78,0
9.79,251
9.791,251
9.791,253
9.791,250
9.792,255
9.792,250
9.792,256
9.792,256
9.793,251
9.793,256
9.793,251
9.793,194
9.794,0
9.794,0
9.794,0
9.795,0
9.805,242
9.805,241
9.806,234
9.806,223
9.806,225
9.806,226
9.807,214
9.807,212
9.807,208
9.807,235
9.808,235
9.808,229
9.808,229
9.808,231
9.809,233
9.819,0
9.819,0
9.82,0
9.82,0
9.82,0
9.821,0
9.821,0
9.821,0
9.821,0
9.822,0
9.822,0
9.822,0
9.822,0
9.823,0
9.823,0
9.823,0
9.824,0
9.824,0
9.824,208
9.824,234
9.835,0
9.835,0
9.835,0
9.836,0
9.836,0
9.836,0
9.836,0
9.837,0
9.837,0
9.837,0
9.838,0
9.838,0
9.838,0
9.838,0
9.839,0
9.839,0
9.839,0
9.839,0
9.84,0
9.85,240
9.85,251
9.851,250
9.851,257
9.851,246
9.851,249
9.852,253
9.852,246
9.852,243
9.853,248
9.853,248
9.853,245
9.853,199
9.854,0
9.854,0
9.854,0
9.865,252
9.865,245
9.865,235
9.865,226
9.866,224
9.866,225
9.866,215
9.867,214
9.867,210
9.867,213
9.867,228
9.868,224
9.868,226
9.868,230
9.868,224
9.879,0
9.879,0
9.879,0
9.88,0
9.88,0
9.88,0
9.881,0
9.881,0
9.881,0
9.881,0
9.882,0
9.882,0
9.882,0
9.882,0
9.883,0
9.883,0
9.883,0
9.884,0
9.884,83
9.884,286
9.895,0
9.895,0
9.895,0
9.895,0
9.896,0
9.896,0
9.896,0
9.896,0
9.897,0
9.897,0
9.897,0
9.898,0
9.898,0
9.898,0
9.898,0
9.899,0
9.899,0
9.899,0
9.899,0
9.91,242
9.91,250
9.91,248
9.911,257
9.911,256
9.911,250
9.911,250
9.912,246
9.912,247
9.912,254
9.913,249
9.913,250
9.913,240
9.913,14
9.914,0
9.924,272
9.924,257
9.925,253
9.925,240
9.925,234
9.925,228
9.926,227
9.926,220
9.926,212
9.926,211
9.927,208
9.927,226
9.927,229
9.928,228
9.928,228
9.938,0
9.939,0
9.939,0
9.939,0
9.939,0
9.94,0
9.94,0
9.94,0
9.94,0
9.941,0
9.941,0
9.941,0
9.942,0
9.942,0
9.942,0
9.942,0
9.943,0
9.943,0
9.943,0
9.943,0
9.954,0
9.954,0
9.954,0
9.955,0
9.955,0
9.955,0
9.955,0
9.956,0
9.956,0
9.956,0
9.957,0
9.957,0
9.957,0
9.957,0
9.958,0
9.958,0
9.958,0
9.958,0
9.959,0
9.959,0
9.969,240
9.97,254
9.97,247
9.97,251
9.971,253
9.971,249
9.971,250
9.971,246
9.972,246
9.972,247
9.972,251
9.972,246
9.973,249
9.973,208
9.973,0
9.984,269
9.984,261
9.984,253
9.985,241
9.985,238
9.985,226
9.985,221
9.986,217
9.986,215
9.986,211
9.986,208
9.987,208
9.987,228
9.987,224
9.988,224
9.998,0
9.998,0
9.999,0
9.999,0
9.999,0
9.999,0
10.0,0
10.0,0
10.0,0
10.0,0
10.001,0
10.001,0
10.001,0
10.002,0
10.002,0
10.002,0
10.002,0
10.003,0
10.013,17
10.013,0
10.014,0
10.014,0
10.014,0
10.014,0
10.015,0
10.015,0
10.015,0
10.015,0
10.016,0
10.016,0
10.016,0
10.017,0
10.017,0
10.017,0
10.017,0
10.028,237
10.028,244
10.028,243
10.029,241
10.029,248
10.029,245
10.029,246
10.03,248
10.03,249
10.03,250
10.031,245
10.031,247
10.031,245
10.042,0
10.042,0
10.042,0
10.042,0
10.043,0
10.043,0
10.043,0
10.043,165
10.044,298
10.044,272
10.044,262
10.044,251
10.045,251
10.045,241
10.045,238
10.056,0
10.056,0
10.056,0
10.057,0
10.057,0
10.057,0
10.057,0
10.058,0
10.058,0
10.058,0
10.058,0
10.059,0
10.059,0
10.059,0
10.06,0
10.06,0
10.06,0
10.071,246
10.071,254
10.071,245
10.071,251
10.072,252
10.072,251
10.072,251
10.072,252
10.073,226
10.073,0
10.073,0
10.074,0
10.074,0
10.074,0
10.074,0
10.085,232
10.085,230
10.085,228
10.086,222
10.086,219
10.086,218
10.086,224
10.087,233
10.087,239
10.087,230
10.087,237
10.088,235
10.088,229
10.098,0
10.099,0
10.099,0
10.099,0
10.1,0
10.1,0
10.1,0
10.1,0
10.101,0
10.101,0
10.101,0
10.101,0
10.102,0
10.102,0
10.102,0
10.103,0
10.103,0
10.113,0
10.114,0
10.114,0
10.114,0
10.114,0
10.115,0
10.115,0
10.115,0
10.115,0
10.116,0
10.116,0
10.116,0
10.117,0
10.117,0
10.117,0
10.117,0
10.118,0
10.128,239
10.128,240
10.129,240
10.129,246
10.129,246
10.129,249
10.13,245
10.13,245
10.13,247
10.13,243
10.131,241
10.131,240
10.131,246
10.142,0
10.142,0
10.142,0
10.143,0
10.143,0
10.143,131
10.143,298
10.144,274
10.144,266
10.144,253
10.144,245
10.145,240
10.145,237
10.145,234
10.146,228
10.156,0
10.156,0
10.157,0
10.157,0
10.157,0
10.157,0
10.158,0
10.158,0
10.158,0
10.158,0
10.159,0
10.159,0
10.159,0
10.16,0
10.16,0
10.16,0
10.171,241
10.171,250
10.171,252
10.171,246
10.172,250
10.172,247
10.172,246
10.172,178
10.173,0
10.173,0
10.173,0
10.174,0
10.174,0
10.174,0
10.174,0
10.185,223
10.185,230
10.185,225
10.186,222
10.186,213
10.186,218
10.186,237
10.187,231
10.187,234
10.187,240
10.188,237
10.188,237
10.188,231
10.199,0
10.199,0
10.199,0
10.199,0
10.2,0
10.2,0
10.2,0
10.2,0
10.201,0
10.201,0
10.201,0
10.202,0
10.202,0
10.202,0
10.202,0
10.203,0
10.203,72
10.213,0
10.214,0
10.214,0
10.214,0
10.214,0
10.215,0
10.215,0
10.215,0
10.216,0
10.216,0
10.216,0
10.216,0
10.217,0
10.217,0
10.217,0
10.217,0
10.218,0
10.228,240
10.228,249
10.229,245
10.229,253
10.229,245
10.229,250
10.23,250
10.23,245
10.23,249
10.231,246
10.231,245
10.231,243
10.231,249
10.232,250
10.242,0
10.242,0
10.243,0
10.243,235
10.243,289
10.243,268
10.244,259
10.244,247
10.244,239
10.245,236
10.245,233
10.245,231
10.245,227
10.246,220
10.256,0
10.256,0
10.257,0
10.257,0
10.257,0
10.257,0
10.258,0
10.258,0
10.258,0
10.259,0
10.259,0
10.259,0
10.259,0
10.26,0
10.26,0
10.26,0
10.271,240
10.271,245
10.271,245
10.271,247
10.272,243
10.272,240
10.272,105
10.273,0
10.273,0
10.273,0
10.273,0
10.274,0
10.274,0
10.274,0
10.274,0
10.285,225
10.285,225
10.285,219
10.286,217
10.286,233
10.286,235
10.287,233
10.287,237
10.287,238
10.287,234
10.288,237
10.288,234
10.288,237
10.288,236
10.299,0
10.299,0
10.299,0
10.3,0
10.3,0
10.3,0
10.301,0
10.301,0
10.301,0
10.301,0
10.302,0
10.302,0
10.302,0
10.302,0
10.303,137
10.303,292
10.313,0
10.314,0
10.314,0
10.314,0
10.314,0
10.315,0
10.315,0
10.315,0
10.316,0
10.316,0
10.316,0
10.316,0
10.317,0
10.317,0
10.317,0
10.317,0
10.318,0
10.328,240
10.328,246
10.329,255
10.329,251
10.329,247
10.33,247
10.33,249
10.33,257
10.33,247
10.331,250
10.331,249
10.331,240
10.331,243
10.342,0
10.342,0
10.342,17
10.343,267
10.343,274
10.343,259
10.343,258
10.344,240
10.344,240
10.344,235
10.345,234
10.345,225
10.345,226
10.345,215
10.356,0
10.356,0
10.356,0
10.357,0
10.357,0
10.357,0
10.357,0
10.358,0
10.358,0
10.358,0
10.359,0
10.359,0
10.359,0
10.359,0
10.36,0
10.36,0
10.36,0
10.371,245
10.371,241
10.371,245
10.371,247
10.372,240
10.372,87
10.372,0
10.373,0
10.373,0
10.373,0
10.373,0
10.374,0
10.374,0
10.374,0
10.374,0
10.385,215
10.385,221
10.385,213
10.386,239
10.386,240
10.386,226
10.387,240
10.387,237
10.387,234
10.387,238
10.388,237
10.388,239
10.388,234
10.388,240
10.399,0
10.399,0
10.399,0
10.4,0
10.4,0
10.4,0
10.401,0
10.401,0
10.401,0
10.401,0
10.402,0
10.402,0
10.402,0
10.402,143
10.403,297
10.403,278
10.413,0
10.414,0
10.414,0
10.414,0
10.415,0
10.415,0
10.415,0
10.415,0
10.416,0
10.416,0
10.416,0
10.416,0
10.417,0
10.417,0
10.417,0
10.417,0
10.418,0
10.428,240
10.429,253
10.429,252
10.429,251
10.429,251
10.43,252
10.43,250
10.43,248
10.43,249
10.431,251
10.431,246
10.431,245
10.431,253
10.442,0
10.442,79
10.443,274
10.443,278
10.443,259
10.443,256
10.444,240
10.444,240
10.444,232
10.444,229
10.445,223
10.445,223
10.445,218
10.445,219
10.456,0
10.456,0
10.456,0
10.457,0
10.457,0
10.457,0
10.458,0
10.458,0
10.458,0
10.458,0
10.459,0
10.459,0
10.459,0
10.459,0
10.46,0
10.46,0
10.47,240
10.471,247
10.471,250
10.471,249
10.471,238
10.472,53
10.472,0
10.472,0
10.473,0
10.473,0
10.473,0
10.473,0
10.474,0
10.474,0
10.474,0
10.474,0
10.485,211
10.485,222
10.486,240
10.486,237
10.486,239
10.486,245
10.487,238
10.487,240
10.487,222
10.487,240
10.488,244
10.488,240
10.488,240
10.499,0
10.499,0
10.499,0
10.499,0
10.5,0
10.5,0
10.5,0
10.501,0
10.501,0
10.501,0
10.501,0
10.502,0
10.502,0
10.502,123
10.502,292
10.503,275
10.513,0
10.513,0
10.514,0
10.514,0
10.514,0
10.515,0
10.515,0
10.515,0
10.515,0
10.516,0
10.516,0
10.516,0
10.516,0
10.517,0
10.517,0
10.517,0
10.518,0
10.518,0
10.528,246
10.529,245
10.529,247
10.529,245
10.529,250
10.53,249
10.53,243
10.53,245
10.53,247
10.531,247
10.531,246
10.531,240
10.532,113
10.542,108
10.542,270
10.543,261
10.543,254
10.543,243
10.543,233
10.544,226
10.544,230
10.544,224
10.544,219
10.545,214
10.545,211
10.545,222
10.556,0
10.556,0
10.556,0
10.556,0
10.557,0
10.557,0
10.557,0
10.558,0
10.558,0
10.558,0
10.558,0
10.559,0
10.559,0
10.559,0
10.559,0
10.56,0
10.56,0
10.57,241
10.571,249
10.571,245
10.571,226
10.572,0
10.572,0
10.572,0
10.572,0
10.573,0
10.573,0
10.573,0
10.573,0
10.574,0
10.574,0
10.574,0
10.575,0
10.585,206
10.585,233
10.586,240
10.586,236
10.586,238
10.586,242
10.587,236
10.587,244
10.587,240
10.587,240
10.588,240
10.588,240
10.588,240
10.599,0
10.599,0
10.599,0
10.599,0
10.6,0
10.6,0
10.6,0
10.601,0
10.601,0
10.601,0
10.601,0
10.602,0
10.602,202
10.602,291
10.602,274
10.603,258
10.613,0
10.613,0
10.614,0
10.614,0
10.614,0
10.614,0
10.615,0
10.615,0
10.615,0
10.616,0
10.616,0
10.616,0
10.616,0
10.617,0
10.617,0
10.617,0
10.617,0
10.628,246
10.628,254
10.628,256
10.629,256
10.629,250
10.629,246
10.63,247
10.63,245
10.63,246
10.63,251
10.631,247
10.631,254
10.631,192
10.642,3
10.642,246
10.642,281
10.642,262
10.643,252
10.643,244
10.643,233
10.643,239
10.644,227
10.644,224
10.644,221
10.645,208
10.645,208
10.645,240
10.656,0
10.656,0
10.656,0
10.656,0
10.657,0
10.657,0
10.657,0
10.657,0
10.658,0
10.658,0
10.658,0
10.659,0
10.659,0
10.659,0
10.659,0
10.66,0
10.66,0
10.67,241
10.671,244
10.671,241
10.671,90
10.671,0
10.672,0
10.672,0
10.672,0
10.673,0
10.673,0
10.673,0
10.673,0
10.674,0
10.674,0
10.674,0
10.674,0
10.685,226
10.685,239
10.685,238
10.686,240
10.686,240
10.686,237
10.686,238
10.687,235
10.687,240
10.687,238
10.688,240
10.688,240
10.688,240
10.699,0
10.699,0
10.699,0
10.699,0
10.7,0
10.7,0
10.7,0
10.7,0
10.701,0
10.701,0
10.701,0
10.702,139
10.702,302
10.702,279
10.702,269
10.703,258
10.713,0
10.713,0
10.714,0
10.714,0
10.714,0
10.714,0
10.715,0
10.715,0
10.715,0
10.716,0
10.716,0
10.716,0
10.716,0
10.717,0
10.717,0
10.717,0
10.717,0
10.728,240
10.728,246
10.728,253
10.729,251
10.729,246
10.729,243
10.73,244
10.73,249
10.73,244
10.73,245
10.731,243
10.731,147
10.731,0
10.742,273
10.742,272
10.742,253
10.742,239
10.743,222
10.743,238
10.743,232
10.744,225
10.744,224
10.744,219
10.744,212
10.745,209
10.745,229
10.755,0
10.756,0
10.756,0
10.756,0
10.756,0
10.757,0
10.757,0
10.757,0
10.757,0
10.758,0
10.758,0
10.758,0
10.759,0
10.759,0
10.759,0
10.759,0
10.76,0
10.77,240
10.77,250
10.771,241
10.771,106
10.771,0
10.771,0
10.772,0
10.772,0
10.772,0
10.772,0
10.773,0
10.773,0
10.773,0
10.774,0
10.774,0
10.774,0
10.785,226
10.785,237
10.785,240
10.785,237
10.786,237
10.786,239
10.786,240
10.786,239
10.787,237
10.787,239
10.787,240
10.788,240
10.788,236
10.788,240
10.799,0
10.799,0
10.799,0
10.799,0
10.8,0
10.8,0
10.8,0
10.8,0
10.801,0
10.801,0
10.801,151
10.802,297
10.802,283
10.802,266
10.802,259
10.813,0
10.813,0
10.813,0
10.814,0
10.814,0
10.814,0
10.814,0
10.815,0
10.815,0
10.815,0
10.815,0
10.816,0
10.816,0
10.816,0
10.817,0
10.817,0
10.817,0
10.828,240
10.828,246
10.828,243
10.828,244
10.829,243
10.829,250
10.829,244
10.829,246
10.83,247
10.83,246
10.83,245
10.831,211
10.831,0
10.831,0
10.842,261
10.842,250
10.842,243
10.842,233
10.843,229
10.843,227
10.843,217
10.843,213
10.844,217
10.844,213
10.844,200
10.845,231
10.845,228
10.855,0
10.856,0
10.856,0
10.856,0
10.856,0
10.857,0
10.857,0
10.857,0
10.857,0
10.858,0
10.858,0
10.858,0
10.858,0
10.859,0
10.859,0
10.859,0
10.86,0
10.87,243
10.87,246
10.871,104
10.871,0
10.871,0
10.871,0
10.872,0
10.872,0
10.872,0
10.872,0
10.873,0
10.873,0
10.873,0
10.874,0
10.874,0
10.874,0
10.885,239
10.885,240
10.885,240
10.885,240
10.886,240
10.886,243
10.886,241
10.886,246
10.887,246
10.887,257
10.887,246
10.888,246
10.888,246
10.898,0
10.899,0
10.899,0
10.899,0
10.899,0
10.9,0
10.9,0
10.9,0
10.901,0
10.901,35
10.901,219
10.901,289
10.902,275
10.902,259
10.902,254
10.902,247
10.913,0
10.913,0
10.913,0
10.914,0
10.914,0
10.914,0
10.915,0
10.915,0
10.915,0
10.915,0
10.916,0
10.916,0
10.916,0
10.916,0
10.917,0
10.917,0
10.917,0
10.928,243
10.928,252
10.928,252
10.929,247
10.929,250
10.929,251
10.929,246
10.93,251
10.93,245
10.93,241
10.93,87
10.931,0
10.931,0
10.931,0
10.942,222
10.942,240
10.942,239
10.942,230
10.943,226
10.943,220
10.943,215
10.944,218
10.944,208
10.944,231
10.944,226
10.945,230
10.945,236
10.955,0
10.956,0
10.956,0
10.956,0
10.956,0
10.957,0
10.957,0
10.957,0
10.958,0
10.958,0
10.958,0
10.958,0
10.959,0
10.959,0
10.959,0
10.959,0
10.96,0
10.97,198
10.97,0
10.971,0
10.971,0
10.971,0
10.972,0
10.972,0
10.972,0
10.972,0
10.973,0
10.973,0
10.973,0
10.973,0
10.974,0
10.974,0
10.974,0
10.975,0
10.985,237
10.985,240
10.986,239
10.986,240
10.986,240
10.986,243
10.987,242
10.987,241
10.987,245
10.987,240
10.988,240
10.988,243
10.988,241
10.999,0
10.999,0
10.999,0
11.0,0
11.0,0
11.0,0
11.0,0
11.001,44
11.001,266
11.001,259
11.001,259
11.002,257
11.002,244
11.002,240
11.003,240
11.013,0
11.013,0
11.014,0
11.014,0
11.014,0
11.014,0
11.015,0
11.015,0
11.015,0
11.015,0
11.016,0
11.016,0
11.016,0
11.016,0
11.017,0
11.017,0
11.017,0
11.028,242
11.028,246
11.028,249
11.029,250
11.029,249
11.029,261
11.029,243
11.03,250
11.03,240
11.03,18
11.03,0
11.031,0
11.031,0
11.031,0
11.042,235
11.042,237
11.042,223
11.042,223
11.043,224
11.043,215
11.043,216
11.044,209
11.044,256
11.044,228
11.044,235
11.045,232
11.045,238
11.045,233
11.056,0
11.056,0
11.056,0
11.056,0
11.057,0
11.057,0
11.057,0
11.058,0
11.058,0
11.058,0
11.058,0
11.059,0
11.059,0
11.059,0
11.059,0
11.06,0
11.07,0
11.071,0
11.071,0
11.071,0
11.071,0
11.072,0
11.072,0
11.072,0
11.072,0
11.073,0
11.073,0
11.073,0
11.073,0
11.074,0
11.074,0
11.074,0
11.075,0
11.085,239
11.085,241
11.086,241
11.086,247
11.086,247
11.086,242
11.087,249
11.087,239
11.087,243
11.087,248
11.088,247
11.088,242
11.088,242
11.089,238
11.099,0
11.099,0
11.1,0
11.1,0
11.1,0
11.1,76
11.101,301
11.101,282
11.101,266
11.101,260
11.102,246
11.102,241
11.102,240
11.102,235
11.113,0
11.113,0
11.113,0
11.114,0
11.114,0
11.114,0
11.115,0
11.115,0
11.115,0
11.115,0
11.116,0
11.116,0
11.116,0
11.116,0
11.117,0
11.117,0
11.117,0
11.128,240
11.128,244
11.128,247
11.129,247
11.129,245
11.129,246
11.129,241
11.13,239
11.13,18
11.13,0
11.13,0
11.131,0
11.131,0
11.131,0
11.132,0
11.142,226
11.142,234
11.142,231
11.143,223
11.143,215
11.143,215
11.144,231
11.144,235
11.144,234
11.144,238
11.145,235
11.145,230
11.145,237
11.156,0
11.156,0
11.156,0
11.156,0
11.157,0
11.157,0
11.157,0
11.158,0
11.158,0
11.158,0
11.158,0
11.159,0
11.159,0
11.159,0
11.159,0
11.16,0
11.16,0
11.17,0
11.171,0
11.171,0
11.171,0
11.172,0
11.172,0
11.172,0
11.172,0
11.173,0
11.173,0
11.173,0
11.173,0
11.174,0
11.174,0
11.174,0
11.175,0
11.175,0
11.185,240
11.185,241
11.186,245
11.186,242
11.186,246
11.187,252
11.187,244
11.187,251
11.187,251
11.188,246
11.188,241
11.188,247
11.188,243
11.199,0
11.199,0
11.2,0
11.2,0
11.2,48
11.2,290
11.201,278
11.201,268
11.201,247
11.201,250
11.202,240
11.202,236
11.202,237
11.202,230
11.203,223
11.213,0
11.213,0
11.214,0
11.214,0
11.214,0
11.215,0
11.215,0
11.215,0
11.215,0
11.216,0
11.216,0
11.216,0
11.216,0
11.217,0
11.217,0
11.217,0
11.228,240
11.228,243
11.228,248
11.229,243
11.229,240
11.229,240
11.229,211
11.23,0
11.23,0
11.23,0
11.23,0
11.231,0
11.231,0
11.231,0
11.232,0
11.242,222
11.242,221
11.243,219
11.243,217
11.243,212
11.243,234
11.244,238
11.244,235
11.244,233
11.244,231
11.245,228
11.245,232
11.245,259
11.246,235
11.256,0
11.256,0
11.257,0
11.257,0
11.257,0
11.257,0
11.258,0
11.258,0
11.258,0
11.258,0
11.259,0
11.259,0
11.259,0
11.26,0
11.26,9
11.26,240
11.271,0
11.271,0
11.271,0
11.271,0
11.272,0
11.272,0
11.272,0
11.272,0
11.273,0
11.273,0
11.273,0
11.273,0
11.274,0
11.274,0
11.274,0
11.275,0
11.275,0
11.285,240
11.286,254
11.286,249
11.286,246
11.286,250
11.287,249
11.287,247
11.287,247
11.288,250
11.288,253
11.288,245
11.288,247
11.289,244
11.289,254
11.299,0
11.3,0
11.3,171
11.3,290
11.3,272
11.301,260
11.301,245
11.301,240
11.301,192
11.302,229
11.302,229
11.302,223
11.303,224
11.313,0
11.313,0
11.314,0
11.314,0
11.314,0
11.314,0
11.315,0
11.315,0
11.315,0
11.315,0
11.316,0
11.316,0
11.316,0
11.317,0
11.317,0
11.317,0
11.317,0
11.328,240
11.328,251
11.328,251
11.329,249
11.329,247
11.329,192
11.329,0
11.33,0
11.33,0
11.33,0
11.33,0
11.331,0
11.331,0
11.331,0
11.332,0
11.332,0
11.342,219
11.343,217
11.343,211
11.343,233
11.343,237
11.344,234
11.344,239
11.344,237
11.344,231
11.345,239
11.345,234
11.345,241
11.346,239
11.356,0
11.356,0
11.357,0
11.357,0
11.357,0
11.357,0
11.358,0
11.358,0
11.358,0
11.358,0
11.359,0
11.359,0
11.359,0
11.36,12
11.36,242
11.36,291
11.371,0
11.371,0
11.371,0
11.371,0
11.372,0
11.372,0
11.372,0
11.372,0
11.373,0
11.373,0
11.373,0
11.374,0
11.374,0
11.374,0
11.374,0
11.375,0
11.375,0
11.385,240
11.386,250
11.386,247
11.386,246
11.387,243
11.387,250
11.387,243
11.387,246
11.388,249
11.388,244
11.388,245
11.388,245
11.389,240
11.389,219
11.399,48
11.4,272
11.4,275
11.4,222
11.401,242
11.401,240
11.401,227
11.401,231
11.402,226
11.402,219
11.402,222
11.402,215
11.403,210
11.413,0
11.413,0
11.414,0
11.414,0
11.414,0
11.414,0
11.415,0
11.415,0
11.415,0
11.416,0
11.416,0
11.416,0
11.416,0
11.417,0
11.417,0
11.417,0
11.417,0
11.428,238
11.428,251
11.428,243
11.429,234
11.429,21
11.429,0
11.43,0
11.43,0
11.43,0
11.43,0
11.431,0
11.431,0
11.431,0
11.431,0
11.432,0
11.432,0
11.442,208
11.443,237
11.443,235
11.443,237
11.444,239
11.444,233
11.444,240
11.444,240
11.445,240
11.445,240
11.445,240
11.445,237
11.446,237
11.456,0
11.456,0
11.457,0
11.457,0
11.457,0
11.458,0
11.458,0
11.458,0
11.458,0
11.459,0
11.459,0
11.459,0
11.459,208
11.46,297
11.46,274
11.46,261
11.471,0
11.471,0
11.471,0
11.472,0
11.472,0
11.472,0
11.472,0
11.473,0
11.473,0
11.473,0
11.473,0
11.474,0
11.474,0
11.474,0
11.474,0
11.475,0
11.475,0
11.485,246
11.486,245
11.486,253
11.486,249
11.487,244
11.487,245
11.487,246
11.487,249
11.488,246
11.488,241
11.488,240
11.488,240
11.489,179
11.499,94
11.5,283
11.5,269
11.5,255
11.5,246
11.501,240
11.501,235
11.501,234
11.501,225
11.502,222
11.502,221
11.502,212
11.502,222
11.503,233
11.513,0
11.513,0
11.514,0
11.514,0
11.514,0
11.515,0
11.515,0
11.515,0
11.515,0
11.516,0
11.516,0
11.516,0
11.516,0
11.517,0
11.517,0
11.517,0
11.528,240
11.528,250
11.528,240
11.529,201
11.529,0
11.529,0
11.529,0
11.53,0
11.53,0
11.53,0
11.53,0
11.531,0
11.531,0
11.531,0
11.532,0
11.532,0
11.542,209
11.543,239
11.543,235
11.543,239
11.543,240
11.544,234
11.544,240
11.544,241
11.544,235
11.545,240
11.545,241
11.545,239
11.546,241
11.546,240
11.556,0
11.557,0
11.557,0
11.557,0
11.557,0
11.558,0
11.558,0
11.558,0
11.558,0
11.559,0
11.559,72
11.559,300
11.56,285
11.56,268
11.56,257
11.571,0
11.571,0
11.571,0
11.571,0
11.572,0
11.572,0
11.572,0
11.572,0
11.573,0
11.573,0
11.573,0
11.573,0
11.574,0
11.574,0
11.574,0
11.575,0
11.575,0
11.585,241
11.586,247
11.586,250
11.586,251
11.586,245
11.587,246
11.587,250
11.587,244
11.587,244
11.588,246
11.588,242
11.588,240
11.589,110
11.599,144
11.599,250
11.6,208
11.6,243
11.6,240
11.6,229
11.601,230
11.601,224
11.601,221
11.601,225
11.602,214
11.602,208
11.602,219
11.602,224
11.613,0
11.613,0
11.613,0
11.614,0
11.614,0
11.614,0
11.615,0
11.615,0
11.615,0
11.615,0
11.616,0
11.616,0
11.616,0
11.616,0
11.617,0
11.617,0
11.628,237
11.628,243
11.628,240
11.628,181
11.629,0
11.629,0
11.629,0
11.629,0
11.63,0
11.63,0
11.63,0
11.63,0
11.631,0
11.631,0
11.631,0
11.632,0
11.642,219
11.642,238
11.643,239
11.643,238
11.643,241
11.643,238
11.644,234
11.644,240
11.644,240
11.644,239
11.645,240
11.645,242
11.645,240
11.646,239
11.656,0
11.656,0
11.657,0
11.657,0
11.657,0
11.657,0
11.658,0
11.658,0
11.658,0
11.658,0
11.659,100
11.659,325
11.659,277
11.66,256
11.66,257
11.67,0
11.671,0
11.671,0
11.671,0
11.671,0
11.672,0
11.672,0
11.672,0
11.672,0
11.673,0
11.673,0
11.673,0
11.673,0
11.674,0
11.674,0
11.674,0
11.675,0
11.685,241
11.685,242
11.686,246
11.686,246
11.686,247
11.686,246
11.687,247
11.687,249
11.687,247
11.687,242
11.688,248
11.688,239
11.688,65
11.699,209
11.699,272
11.699,253
11.7,243
11.7,236
11.7,229
11.7,225
11.701,220
11.701,217
11.701,213
11.701,209
11.702,202
11.702,231
11.702,226
11.713,0
11.713,0
11.713,0
11.714,0
11.714,0
11.714,0
11.714,0
11.715,0
11.715,0
11.715,0
11.715,0
11.716,0
11.716,0
11.716,0
11.717,0
11.717,0
11.727,240
11.728,240
11.728,240
11.728,123
11.728,0
11.729,0
11.729,0
11.729,0
11.729,0
11.73,0
11.73,0
11.73,0
11.731,0
11.731,0
11.731,0
11.731,0
11.742,211
11.742,239
11.742,237
11.743,240
11.743,234
11.743,237
11.743,231
11.744,238
11.744,236
11.744,239
11.744,239
11.745,241
11.745,239
11.745,240
11.756,0
11.756,0
11.756,0
11.757,0
11.757,0
11.757,0
11.757,0
11.758,0
11.758,0
11.758,0
11.758,100
11.759,305
11.759,274
11.759,267
11.76,256
11.77,0
11.77,0
11.771,0
11.771,0
11.771,0
11.771,0
11.772,0
11.772,0
11.772,0
11.772,0
11.773,0
11.773,0
11.773,0
11.773,0
11.774,0
11.774,0
11.774,0
11.785,240
11.785,245
11.785,247
11.786,247
11.786,240
11.786,244
11.786,243
11.787,247
11.787,246
11.787,241
11.787,243
11.788,229
11.788,0
11.788,0
11.799,258
11.799,229
11.799,237
11.8,238
11.8,240
11.8,226
11.8,227
11.801,221
11.801,218
11.801,211
11.801,210
11.802,227
11.802,217
11.812,0
11.813,0
11.813,0
11.813,0
11.814,0
11.814,0
11.814,0
11.814,0
11.815,0
11.815,0
11.815,0
11.815,0
11.816,0
11.816,0
11.816,0
11.817,0
11.817,0
11.827,240
11.828,239
11.828,128
11.828,0
11.828,0
11.829,0
11.829,0
11.829,0
11.829,0
11.83,0
11.83,0
11.83,0
11.83,0
11.831,0
11.831,0
11.831,0
11.842,227
11.842,235
11.842,237
11.843,240
11.843,237
11.843,231
11.843,239
11.844,239
11.844,241
11.844,240
11.844,239
11.845,240
11.845,240
11.856,0
11.856,0
11.856,0
11.856,0
11.857,0
11.857,0
11.857,0
11.857,0
11.858,0
11.858,0
11.858,114
11.859,290
11.859,272
11.859,267
11.859,256
11.86,243
11.87,0
11.87,0
11.871,0
11.871,0
11.871,0
11.871,0
11.872,0
11.872,0
11.872,0
11.873,0
11.873,0
11.873,0
11.873,0
11.874,0
11.874,0
11.874,0
11.874,0
11.885,240
11.885,251
11.885,251
11.886,247
11.886,245
11.886,249
11.887,243
11.887,243
11.887,245
11.887,245
11.888,186
11.888,0
11.888,0
11.888,0
11.899,253
11.899,240
11.899,233
11.9,230
11.9,228
11.9,226
11.9,216
11.901,215
11.901,208
11.901,213
11.902,228
11.902,223
11.902,230
11.913,0
11.913,0
11.913,0
11.913,0
11.914,0
11.914,0
11.914,0
11.915,0
11.915,0
11.915,0
11.915,0
11.916,0
11.916,0
11.916,0
11.916,0
11.917,0
11.917,0
11.927,232
11.928,0
11.928,0
11.928,0
11.928,0
11.929,0
11.929,0
11.929,0
11.93,0
11.93,0
11.93,0
11.93,0
11.931,0
11.931,0
11.931,0
11.931,0
11.932,0
11.942,236
11.942,240
11.943,240
11.943,241
11.943,242
11.944,245
11.944,240
11.944,240
11.944,245
11.945,241
11.945,246
11.945,241
11.945,241
11.956,0
11.956,0
11.956,0
11.957,0
11.957,0
11.957,0
11.958,0
11.958,2
11.958,224
11.958,294
11.959,272
11.959,256
11.959,256
11.959,245
11.96,241
11.97,0
11.97,0
11.971,0
11.971,0
11.971,0
11.972,0
11.972,0
11.972,0
11.972,0
11.973,0
11.973,0
11.973,0
11.973,0
11.974,0
11.974,0
11.974,0
11.974,0
11.985,243
11.985,273
11.985,252
11.986,249
11.986,246
11.986,243
11.987,248
11.987,243
11.987,247
11.987,155
11.988,0
11.988,0
11.988,0
11.988,0
11.999,228
11.999,240
11.999,231
12.0,225
12.0,226
12.0,226
12.0,223
12.001,208
12.001,223
12.001,235
12.002,226
12.002,235
12.002,238
12.002,229
12.013,0
12.013,0
12.013,0
12.014,0
12.014,0
12.014,0
12.014,0
12.015,0
12.015,0
12.015,0
12.016,0
12.016,0
12.016,0
12.016,0
12.017,0
12.017,0
12.027,0
12.028,0
12.028,0
12.028,0
12.029,0
12.029,0
12.029,0
12.029,0
12.03,0
12.03,0
12.03,0
12.03,0
12.031,0
12.031,0
12.031,0
12.031,0
12.032,0
12.042,240
12.042,240
12.043,242
12.043,245
12.043,247
12.044,245
12.044,247
12.044,244
12.044,250
12.045,245
12.045,249
12.045,245
12.045,242
12.046,241
12.056,0
12.056,0
12.057,0
12.057,0
12.057,0
12.058,48
12.058,285
12.058,288
12.058,272
12.059,261
12.059,252
12.059,240
12.059,237
12.06,240
12.07,0
12.07,0
12.071,0
12.071,0
12.071,0
12.072,0
12.072,0
12.072,0
12.072,0
12.073,0
12.073,0
12.073,0
12.073,0
12.074,0
12.074,0
12.074,0
12.074,0
12.085,242
12.085,256
12.085,253
12.086,251
12.086,249
12.086,252
12.087,246
12.087,240
12.087,89
12.087,0
12.088,0
12.088,0
12.088,0
12.088,0
12.089,0
12.099,229
12.099,230
12.1,223
12.1,223
12.1,220
12.101,217
12.101,219
12.101,231
12.101,234
12.102,234
12.102,230
12.102,232
12.102,230
12.113,0
12.113,0
12.113,0
12.114,0
12.114,0
12.114,0
12.114,0
12.115,0
12.115,0
12.115,0
12.116,0
12.116,0
12.116,0
12.116,0
12.117,0
12.117,0
12.117,0
12.128,0
12.128,0
12.128,0
12.128,0
12.129,0
12.129,0
12.129,0
12.13,0
12.13,0
12.13,0
12.13,0
12.131,0
12.131,0
12.131,0
12.131,0
12.132,0
12.132,0
12.142,240
12.143,241
12.143,243
12.143,245
12.143,247
12.144,251
12.144,245
12.144,247
12.145,245
12.145,245
12.145,246
12.145,245
12.146,242
12.156,0
12.156,0
12.157,0
12.157,0
12.157,2
12.157,187
12.158,288
12.158,271
12.158,252
12.159,251
12.159,245
12.159,240
12.159,238
12.16,233
12.16,223
12.17,0
12.171,0
12.171,0
12.171,0
12.171,0
12.172,0
12.172,0
12.172,0
12.172,0
12.173,0
12.173,0
12.173,0
12.174,0
12.174,0
12.174,0
12.174,0
12.185,240
12.185,247
12.185,244
12.186,250
12.186,246
12.186,217
12.187,240
12.187,144
12.187,0
12.187,0
12.188,0
12.188,0
12.188,0
12.188,0
12.189,0
12.199,230
12.199,225
12.2,222
12.2,217
12.2,215
12.201,222
12.201,235
12.201,237
12.201,237
12.202,235
12.202,234
12.202,219
12.202,230
12.213,0
12.213,0
12.213,0
12.214,0
12.214,0
12.214,0
12.214,0
12.215,0
12.215,0
12.215,0
12.216,0
12.216,0
12.216,0
12.216,0
12.217,0
12.217,0
12.217,97
12.228,0
12.228,0
12.228,0
12.228,0
12.229,0
12.229,0
12.229,0
12.23,0
12.23,0
12.23,0
12.23,0
12.231,0
12.231,0
12.231,0
12.231,0
12.232,0
12.232,0
12.242,241
12.243,250
12.243,247
12.243,247
12.244,246
12.244,245
12.244,249
12.244,247
12.245,242
12.245,245
12.245,243
12.245,246
12.246,245
12.246,241
12.256,0
12.257,0
12.257,97
12.257,292
12.258,279
12.258,266
12.258,257
12.258,243
12.259,239
12.259,236
12.259,235
12.259,228
12.26,224
12.27,0
12.27,0
12.271,0
12.271,0
12.271,0
12.271,0
12.272,0
12.272,0
12.272,0
12.273,0
12.273,0
12.273,0
12.273,0
12.274,0
12.274,0
12.274,0
12.274,0
12.275,0
12.285,246
12.285,249
12.286,246
12.286,247
12.286,235
12.287,51
12.287,0
12.287,0
12.287,0
12.288,0
12.288,0
12.288,0
12.288,0
12.289,0
12.289,0
12.299,220
12.3,217
12.3,218
12.3,230
12.301,235
12.301,240
12.301,240
12.301,233
12.302,234
12.302,236
12.302,237
12.302,240
12.303,240
12.313,0
12.313,0
12.314,0
12.314,0
12.314,0
12.314,0
12.315,0
12.315,0
12.315,0
12.316,0
12.316,0
12.316,0
12.316,0
12.317,0
12.317,128
12.317,289
12.317,272
12.328,0
12.328,0
12.328,0
12.329,0
12.329,0
12.329,0
12.33,0
12.33,0
12.33,0
12.33,0
12.331,0
12.331,0
12.331,0
12.331,0
12.332,0
12.332,0
12.342,243
12.343,246
12.343,247
12.343,248
12.344,251
12.344,249
12.344,252
12.344,242
12.345,247
12.345,246
12.345,247
12.345,243
12.346,245
12.346,240
12.356,0
12.357,16
12.357,223
12.357,288
12.358,270
12.358,256
12.358,251
12.358,240
12.359,230
12.359,234
12.359,239
12.359,224
12.36,219
12.37,0
12.37,0
12.371,0
12.371,0
12.371,0
12.372,0
12.372,0
12.372,0
12.372,0
12.373,0
12.373,0
12.373,0
12.373,0
12.374,0
12.374,0
12.374,0
12.374,0
12.385,240
12.385,245
12.386,243
12.386,246
12.386,239
12.386,0
12.387,0
12.387,0
12.387,0
12.387,0
12.388,0
12.388,0
12.388,0
12.388,0
12.389,0
12.389,0
12.4,218
12.4,210
12.4,238
12.4,238
12.401,238
12.401,238
12.401,240
12.401,237
12.402,237
12.402,240
12.402,238
12.403,240
12.403,239
12.413,0
12.414,0
12.414,0
12.414,0
12.414,0
12.415,0
12.415,0
12.415,0
12.415,0
12.416,0
12.416,0
12.416,0
12.417,63
12.417,289
12.417,283
12.417,272
12.428,0
12.428,0
12.428,0
12.429,0
12.429,0
12.429,0
12.429,0
12.43,0
12.43,0
12.43,0
12.43,0
12.431,0
12.431,0
12.431,0
12.432,0
12.432,0
12.432,0
12.443,241
12.443,246
12.443,250
12.443,252
12.444,245
12.444,247
12.444,245
12.444,246
12.445,243
12.445,243
12.445,246
12.446,242
12.446,237
12.446,105
12.457,171
12.457,269
12.457,219
12.457,230
12.458,240
12.458,240
12.458,229
12.458,227
12.459,225
12.459,218
12.459,213
12.46,210
12.46,231
12.47,0
12.471,0
12.471,0
12.471,0
12.471,0
12.472,0
12.472,0
12.472,0
12.472,0
12.473,0
12.473,0
12.473,0
12.474,0
12.474,0
12.474,0
12.474,0
12.475,0
12.485,241
12.485,250
12.486,246
12.486,147
12.486,0
12.486,0
12.487,0
12.487,0
12.487,0
12.487,0
12.488,0
12.488,0
12.488,0
12.489,0
12.489,0
12.489,0
12.5,214
12.5,239
12.5,238
12.5,238
12.501,238
12.501,233
12.501,234
12.501,238
12.502,240
12.502,238
12.502,240
12.503,240
12.503,240
12.513,0
12.514,0
12.514,0
12.514,0
12.514,0
12.515,0
12.515,0
12.515,0
12.515,0
12.516,0
12.516,0
12.516,101
12.517,295
12.517,279
12.517,265
12.517,257
12.528,0
12.528,0
12.528,0
12.529,0
12.529,0
12.529,0
12.529,0
12.53,0
12.53,0
12.53,0
12.531,0
12.531,0
12.531,0
12.531,0
12.532,0
12.532,0
12.532,0
12.543,242
12.543,251
12.543,252
12.543,256
12.544,247
12.544,243
12.544,250
12.545,247
12.545,253
12.545,243
12.545,243
12.546,219
12.546,0
12.556,174
12.557,277
12.557,263
12.557,245
12.557,241
12.558,237
12.558,237
12.558,223
12.559,226
12.559,217
12.559,211
12.559,210
12.56,229
12.57,0
12.57,0
12.571,0
12.571,0
12.571,0
12.571,0
12.572,0
12.572,0
12.572,0
12.572,0
12.573,0
12.573,0
12.573,0
12.574,0
12.574,0
12.574,0
12.574,0
12.585,240
12.585,251
12.585,240
12.586,163
12.586,0
12.586,0
12.586,0
12.587,0
12.587,0
12.587,0
12.588,0
12.588,0
12.588,0
12.588,0
12.589,0
12.589,0
12.599,215
12.6,238
12.6,240
12.6,237
12.6,231
12.601,235
12.601,236
12.601,234
12.601,238
12.602,233
12.602,237
12.602,239
12.603,234
12.603,240
12.613,0
12.614,0
12.614,0
12.614,0
12.614,0
12.615,0
12.615,0
12.615,0
12.615,0
12.616,0
12.616,80
12.616,288
12.617,288
12.617,268
12.617,259
12.628,0
12.628,0
12.628,0
12.628,0
12.629,0
12.629,0
12.629,0
12.629,0
12.63,0
12.63,0
12.63,0
12.63,0
12.631,0
12.631,0
12.631,0
12.632,0
12.632,0
12.642,240
12.643,245
12.643,246
12.643,249
12.643,245
12.644,248
12.644,247
12.644,244
12.644,245
12.645,246
12.645,244
12.645,241
12.646,83
12.646,0
12.656,264
12.657,259
12.657,217
12.657,193
12.657,234
12.658,231
12.658,228
12.658,221
12.658,217
12.659,214
12.659,208
12.659,226
12.66,231
12.67,0
12.67,0
12.671,0
12.671,0
12.671,0
12.671,0
12.672,0
12.672,0
12.672,0
12.672,0
12.673,0
12.673,0
12.673,0
12.673,0
12.674,0
12.674,0
12.674,0
12.685,246
12.685,246
12.685,133
12.686,0
12.686,0
12.686,0
12.686,0
12.687,0
12.687,0
12.687,0
12.687,0
12.688,0
12.688,0
12.688,0
12.689,0
12.689,0
12.699,233
12.7,231
12.7,230
12.7,240
12.7,238
12.701,239
12.701,241
12.701,239
12.701,240
12.702,240
12.702,240
12.702,240
12.703,239
12.713,0
12.713,0
12.714,0
12.714,0
12.714,0
12.714,0
12.715,0
12.715,0
12.715,0
12.716,0
12.716,155
12.716,291
12.716,267
12.717,265
12.717,251
12.717,245
12.728,0
12.728,0
12.728,0
12.728,0
12.729,0
12.729,0
12.729,0
12.73,0
12.73,0
12.73,0
12.73,0
12.731,0
12.731,0
12.731,0
12.731,0
12.732,0
12.732,0
12.742,240
12.743,245
12.743,253
12.743,245
12.744,247
12.744,242
12.744,251
12.744,246
12.745,241
12.745,247
12.745,203
12.745,0
12.746,0
12.746,0
12.756,247
12.757,240
12.757,240
12.757,233
12.758,227
12.758,225
12.758,224
12.758,222
12.759,209
12.759,209
12.759,230
12.759,230
12.76,227
12.77,0
12.77,0
12.771,0
12.771,0
12.771,0
12.771,0
12.772,0
12.772,0
12.772,0
12.773,0
12.773,0
12.773,0
12.773,0
12.774,0
12.774,0
12.774,0
12.774,0
12.785,218
12.785,0
12.785,0
12.786,0
12.786,0
12.786,0
12.787,0
12.787,0
12.787,0
12.787,0
12.788,0
12.788,0
12.788,0
12.788,0
12.789,0
12.789,0
12.789,0
12.8,240
12.8,237
12.8,240
12.801,245
12.801,241
12.801,239
12.801,245
12.802,242
12.802,247
12.802,242
12.802,240
12.803,247
12.803,241
12.813,0
12.814,0
12.814,0
12.814,0
12.815,0
12.815,0
12.815,0
12.815,22
12.816,263
12.816,285
12.816,272
12.816,260
12.817,250
12.817,240
12.817,239
12.828,0
12.828,0
12.828,0
12.829,0
12.829,0
12.829,0
12.829,0
12.83,0
12.83,0
12.83,0
12.83,0
12.831,0
12.831,0
12.831,0
12.831,0
12.832,0
12.832,0
12.842,240
12.843,250
12.843,242
12.843,246
12.844,247
12.844,245
12.844,241
12.844,243
12.845,240
12.845,123
12.845,0
12.845,0
12.846,0
12.846,0
12.856,238
12.857,228
12.857,230
12.857,226
12.858,235
12.858,222
12.858,216
12.858,210
12.859,219
12.859,227
12.859,223
12.859,234
12.86,230
12.87,0
12.87,0
12.871,0
12.871,0
12.871,0
12.871,0
12.872,0
12.872,0
12.872,0
12.873,0
12.873,0
12.873,0
12.873,0
12.874,0
12.874,0
12.874,0
12.874,0
12.885,6
12.885,0
12.885,0
12.886,0
12.886,0
12.886,0
12.887,0
12.887,0
12.887,0
12.887,0
12.888,0
12.888,0
12.888,0
12.888,0
12.889,0
12.889,0
12.889,0
12.9,240
12.9,237
12.9,241
12.9,241
12.901,241
12.901,245
12.901,246
12.902,241
12.902,246
12.902,243
12.902,245
12.903,240
12.903,246
12.903,240
12.914,0
12.914,0
12.914,0
12.914,0
12.915,0
12.915,0
12.915,149
12.916,269
12.916,270
12.916,260
12.916,251
12.917,246
12.917,243
12.917,240
12.928,0
12.928,0
12.928,0
12.928,0
12.929,0
12.929,0
12.929,0
12.93,0
12.93,0
12.93,0
12.93,0
12.931,0
12.931,0
12.931,0
12.931,0
12.932,0
12.932,0
12.942,239
12.943,244
12.943,241
12.943,243
12.943,248
12.944,246
12.944,241
12.944,241
12.945,215
12.945,0
12.945,0
12.945,0
12.946,0
12.946,0
12.946,0
12.957,229
12.957,226
12.957,224
12.957,224
12.958,214
12.958,212
12.958,206
12.959,230
12.959,230
12.959,223
12.959,226
12.96,227
12.96,226
12.97,0
12.971,0
12.971,0
12.971,0
12.971,0
12.972,0
12.972,0
12.972,0
12.972,0
12.973,0
12.973,0
12.973,0
12.974,0
12.974,0
12.974,0
12.974,0
12.975,0
12.985,0
12.985,0
12.986,0
12.986,0
12.986,0
12.986,0
12.987,0
12.987,0
12.987,0
12.988,0
12.988,0
12.988,0
12.988,0
12.989,0
12.989,0
12.989,0
12.989,0
13.0,240
13.0,240
13.0,241
13.001,240
13.001,241
13.001,243
13.001,240
13.002,244
13.002,240
13.002,241
13.003,239
13.003,245
13.003,240
13.014,0
13.014,0
13.014,0
13.014,0
13.015,0
13.015,107
13.015,302
13.015,272
13.016,263
13.016,251
13.016,245
13.017,240
13.017,233
13.017,236
13.017,225
13.028,0
13.028,0
13.028,0
13.029,0
13.029,0
13.029,0
13.029,0
13.03,0
13.03,0
13.03,0
13.03,0
13.031,0
13.031,0
13.031,0
13.032,0
13.032,0
13.042,239
13.043,242
13.043,242
13.043,241
13.043,238
13.044,243
13.044,249
13.044,198
13.045,0
13.045,0
13.045,0
13.045,0
13.046,0
13.046,0
13.046,0
13.057,212
13.057,219
13.057,219
13.057,219
13.058,222
13.058,209
13.058,228
13.059,230
13.059,228
13.059,225
13.059,229
13.06,226
13.06,230
13.07,0
13.071,0
13.071,0
13.071,0
13.071,0
13.072,0
13.072,0
13.072,0
13.072,0
13.073,0
13.073,0
13.073,0
13.074,0
13.074,0
13.074,0
13.074,0
13.075,27
13.085,0
13.085,0
13.086,0
13.086,0
13.086,0
13.086,0
13.087,0
13.087,0
13.087,0
13.088,0
13.088,0
13.088,0
13.088,0
13.089,0
13.089,0
13.089,0
13.089,0
13.1,235
13.1,241
13.1,239
13.101,240
13.101,246
13.101,241
13.102,246
13.102,242
13.102,239
13.102,240
13.103,240
13.103,240
13.103,240
13.103,240
13.114,0
13.114,0
13.114,0
13.115,150
13.115,242
13.115,254
13.116,258
13.116,245
13.116,237
13.116,235
13.117,230
13.117,229
13.117,224
13.117,218
13.128,0
13.128,0
13.128,0
13.129,0
13.129,0
13.129,0
13.129,0
13.13,0
13.13,0
13.13,0
13.131,0
13.131,0
13.131,0
13.131,0
13.132,0
13.132,0
13.142,236
13.143,240
13.143,245
13.143,240
13.144,241
13.144,240
13.144,134
13.144,0
13.145,0
13.145,0
13.145,0
13.145,0
13.146,0
13.146,0
13.146,0
13.157,215
13.157,218
13.157,214
13.157,217
13.158,211
13.158,224
13.158,227
13.159,225
13.159,223
13.159,225
13.159,229
13.16,227
13.16,228
13.16,229
13.171,0
13.171,0
13.171,0
13.171,0
13.172,0
13.172,0
13.172,0
13.173,0
13.173,0
13.173,0
13.173,0
13.174,0
13.174,0
13.174,0
13.174,87
13.175,303
13.185,0
13.185,0
13.186,0
13.186,0
13.186,0
13.187,0
13.187,0
13.187,0
13.187,0
13.188,0
13.188,0
13.188,0
13.188,0
13.189,0
13.189,0
13.189,0
13.189,0
13.2,237
13.2,243
13.2,247
13.201,245
13.201,243
13.201,245
13.202,247
13.202,240
13.202,243
13.202,249
13.203,242
13.203,242
13.203,246
13.214,0
13.214,0
13.214,0
13.214,145
13.215,289
13.215,273
13.215,261
13.216,247
13.216,242
13.216,237
13.216,236
13.217,234
13.217,223
13.217,220
13.228,0
13.228,0
13.228,0
13.228,0
13.229,0
13.229,0
13.229,0
13.23,0
13.23,0
13.23,0
13.23,0
13.231,0
13.231,0
13.231,0
13.231,0
13.232,0
13.232,0
13.242,242
13.243,246
13.243,272
13.243,251
13.243,250
13.244,227
13.244,0
13.244,0
13.245,0
13.245,0
13.245,0
13.245,0
13.246,0
13.246,0
13.246,0
13.257,211
13.257,219
13.257,209
13.257,208
13.258,229
13.258,230
13.258,237
13.258,231
13.259,235
13.259,226
13.259,231
13.26,230
13.26,238
13.26,238
13.271,0
13.271,0
13.271,0
13.271,0
13.272,0
13.272,0
13.272,0
13.272,0
13.273,0
13.273,0
13.273,0
13.274,0
13.274,0
13.274,0
13.274,222
13.275,290
13.285,0
